Time,EMG,Force
0,-0.007316,11.501573
0.001,-0.012308,11.332112
0.002,-0.015045,11.360355
0.003,-0.015689,11.360355
0.004,-0.015045,11.55806
0.005,-0.013757,11.473329
0.006,-0.011986,11.614547
0.007,-0.01102,11.784007
0.008,-0.011181,11.840494
0.009,-0.013113,11.388599
0.01,-0.013918,11.388599
0.011,-0.013757,11.303869
0.012,-0.012469,11.388599
0.013,-0.011342,11.55806
0.014,-0.010215,11.925225
0.015,-0.009249,12.009955
0.016,-0.008443,12.009955
0.017,-0.006672,12.094685
0.018,-0.003774,11.840494
0.019,9.00E-05,11.699277
0.02,0.003471,11.473329
0.021,0.007657,11.784007
0.022,0.011361,11.72752
0.023,0.015869,11.671033
0.024,0.020216,11.614547
0.025,0.023597,11.784007
0.026,0.026818,11.896981
0.027,0.028911,12.066442
0.028,0.029877,12.038198
0.029,0.029555,12.151172
0.03,0.028106,12.122929
0.031,0.025208,11.981711
0.032,0.021182,11.840494
0.033,0.016191,11.840494
0.034,0.011683,11.812251
0.035,0.007657,11.64279
0.036,0.005242,11.614547
0.037,0.00331,11.784007
0.038,0.002183,11.840494
0.039,0.000573,11.840494
0.04,0.002344,12.179416
0.041,-0.001842,12.094685
0.042,-0.003774,12.009955
0.043,-0.01102,11.925225
0.044,-0.0239,11.868738
0.045,-0.029375,11.812251
0.046,-0.029858,11.586303
0.047,-0.03018,11.64279
0.048,-0.027926,11.699277
0.049,-0.021485,11.981711
0.05,-0.012469,11.953468
0.051,-0.002808,11.896981
0.052,0.005564,11.72752
0.053,0.012971,11.699277
0.054,0.017157,11.473329
0.055,0.018284,11.868738
0.056,0.015386,11.388599
0.057,0.010073,11.388599
0.058,0.003954,11.840494
0.059,-0.00152,11.953468
0.06,-0.004579,11.868738
0.061,-0.006028,11.784007
0.062,-0.005062,12.009955
0.063,-0.00313,11.812251
0.064,0.000734,11.55806
0.065,0.005081,11.501573
0.066,0.008785,11.529816
0.067,0.0112,11.501573
0.068,0.012649,11.501573
0.069,0.014098,11.445086
0.07,0.015869,11.64279
0.071,0.016674,11.840494
0.072,0.016352,11.925225
0.073,0.016513,11.755764
0.074,0.018123,11.64279
0.075,0.021182,11.812251
0.076,0.024402,11.784007
0.077,0.026657,11.812251
0.078,0.027623,11.586303
0.079,0.022309,11.501573
0.08,0.03197,11.445086
0.081,0.027623,11.55806
0.082,0.024886,11.586303
0.083,0.023436,11.614547
0.084,0.017318,11.699277
0.085,0.008785,11.699277
0.086,0.002988,11.72752
0.087,-0.002003,11.812251
0.088,-0.003613,11.72752
0.089,-0.00474,11.671033
0.09,-0.006833,11.671033
0.091,-0.010376,11.529816
0.092,-0.013918,11.529816
0.093,-0.017299,11.501573
0.094,-0.021807,11.614547
0.095,-0.027121,11.699277
0.096,-0.0334,11.784007
0.097,-0.038874,11.812251
0.098,-0.043383,11.586303
0.099,-0.045798,11.64279
0.1,-0.046442,11.473329
0.101,-0.044832,11.529816
0.102,-0.041933,11.925225
0.103,-0.037103,12.151172
0.104,-0.03179,12.122929
0.105,-0.02696,12.094685
0.106,-0.021485,11.784007
0.107,-0.01424,11.64279
0.108,-0.005384,11.614547
0.109,0.003471,11.840494
0.11,0.011361,12.009955
0.111,0.016835,12.264146
0.112,0.019733,12.094685
0.113,0.022148,12.320633
0.114,0.023597,12.122929
0.115,0.023919,12.122929
0.116,0.023436,11.840494
0.117,0.023436,11.896981
0.118,0.024725,11.840494
0.119,0.026335,11.64279
0.12,0.028428,11.755764
0.121,0.031326,11.812251
0.122,0.034385,11.896981
0.123,0.037283,11.840494
0.124,0.038732,11.925225
0.125,0.045978,12.066442
0.126,0.041792,12.122929
0.127,0.042275,12.038198
0.128,0.04147,12.066442
0.129,0.038571,12.122929
0.13,0.031648,11.925225
0.131,0.023275,11.981711
0.132,0.01603,11.840494
0.133,0.0112,11.755764
0.134,0.007818,11.671033
0.135,0.003632,11.699277
0.136,-0.002164,11.868738
0.137,-0.005384,11.784007
0.138,-0.006672,11.981711
0.139,-0.00796,12.038198
0.14,-0.010215,11.953468
0.141,-0.011825,11.840494
0.142,-0.013435,11.755764
0.143,-0.014723,11.72752
0.144,-0.014884,11.219138
0.145,-0.013274,11.953468
0.146,-0.010537,11.868738
0.147,-0.006833,11.72752
0.148,-0.002486,12.066442
0.149,0.001378,12.066442
0.15,0.004276,11.812251
0.151,0.005886,11.529816
0.152,0.006852,11.55806
0.153,0.007657,11.473329
0.154,0.007335,11.529816
0.155,0.006691,11.445086
0.156,0.004759,11.614547
0.157,0.001861,11.72752
0.158,-0.002164,11.784007
0.159,-0.005223,11.699277
0.16,-0.007477,11.812251
0.161,-0.008443,11.64279
0.162,-0.010376,11.586303
0.163,-0.007477,11.388599
0.164,-0.013918,11.586303
0.165,-0.012308,11.614547
0.166,-0.011181,11.699277
0.167,-0.00941,11.784007
0.168,-0.009249,11.699277
0.169,-0.008443,11.671033
0.17,-0.008121,11.55806
0.171,-0.008604,11.501573
0.172,-0.009732,11.501573
0.173,-0.012791,11.445086
0.174,-0.017138,11.64279
0.175,-0.022934,11.614547
0.176,-0.029697,11.671033
0.177,-0.03501,11.840494
0.178,-0.039357,11.55806
0.179,-0.040967,11.501573
0.18,-0.040645,11.303869
0.181,-0.037425,11.360355
0.182,-0.032917,11.981711
0.183,-0.026799,11.981711
0.184,-0.021163,12.094685
0.185,-0.015528,11.981711
0.186,-0.008765,11.784007
0.187,-0.00313,11.501573
0.188,0.000895,11.699277
0.189,0.002988,11.699277
0.19,0.003954,11.755764
0.191,0.004437,11.840494
0.192,0.005725,12.094685
0.193,0.007657,12.094685
0.194,0.009107,12.094685
0.195,0.009912,11.953468
0.196,0.009751,11.925225
0.197,0.008624,11.755764
0.198,0.008141,11.812251
0.199,0.007818,11.64279
0.2,0.008141,11.72752
0.201,0.008785,11.614547
0.202,0.010234,11.671033
0.203,0.011361,11.840494
0.204,0.01925,11.868738
0.205,0.017479,11.896981
0.206,0.017801,12.009955
0.207,0.014742,11.784007
0.208,0.007013,11.925225
0.209,-0.004418,11.72752
0.21,-0.013113,11.755764
0.211,-0.01907,11.699277
0.212,-0.025672,11.72752
0.213,-0.030824,11.699277
0.214,-0.031146,11.840494
0.215,-0.029214,11.953468
0.216,-0.027926,11.72752
0.217,-0.025833,11.529816
0.218,-0.02229,11.64279
0.219,-0.018426,11.303869
0.22,-0.013918,11.671033
0.221,-0.009249,11.784007
0.222,-0.004257,11.586303
0.223,-0.000232,11.896981
0.224,0.003793,12.009955
0.225,0.007013,11.812251
0.226,0.008946,11.501573
0.227,0.009107,11.219138
0.228,0.008141,11.501573
0.229,0.007174,11.445086
0.23,0.005242,11.501573
0.231,0.004276,11.586303
0.232,0.003632,11.812251
0.233,0.00492,11.784007
0.234,0.00653,11.72752
0.235,0.007657,11.699277
0.236,0.008624,11.586303
0.237,0.008302,11.699277
0.238,0.007496,11.586303
0.239,0.001378,11.332112
0.24,0.004759,11.303869
0.241,-0.006511,11.473329
0.242,-0.012469,11.332112
0.243,-0.02068,11.586303
0.244,-0.026155,11.671033
0.245,-0.030824,11.64279
0.246,-0.032756,11.586303
0.247,-0.034366,11.586303
0.248,-0.034366,11.388599
0.249,-0.032273,11.416842
0.25,-0.027765,11.416842
0.251,-0.022934,11.529816
0.252,-0.019553,11.699277
0.253,-0.016816,11.586303
0.254,-0.015528,11.953468
0.255,-0.016011,11.360355
0.256,-0.018265,11.332112
0.257,-0.020841,11.134408
0.258,-0.021485,11.416842
0.259,-0.020841,11.755764
0.26,-0.020519,11.981711
0.261,-0.021163,12.122929
0.262,-0.021968,11.840494
0.263,-0.022612,11.981711
0.264,-0.022612,11.671033
0.265,-0.022934,11.55806
0.266,-0.021968,11.671033
0.267,-0.020358,11.812251
0.268,-0.018748,12.038198
0.269,-0.01746,12.094685
0.27,-0.015689,12.151172
0.271,-0.013757,11.981711
0.272,-0.011825,11.812251
0.273,-0.009571,11.586303
0.274,-0.006189,11.445086
0.275,-0.002647,11.586303
0.276,0.000895,11.840494
0.277,0.002183,11.784007
0.278,0.005403,11.953468
0.279,0.005403,11.925225
0.28,0.004437,11.925225
0.281,-0.002808,11.868738
0.282,-0.011181,11.671033
0.283,-0.011342,11.755764
0.284,-0.005384,11.671033
0.285,-7.10E-05,11.699277
0.286,0.003793,11.614547
0.287,0.007496,11.896981
0.288,0.009751,11.699277
0.289,0.009429,11.896981
0.29,0.007657,11.812251
0.291,0.005564,11.784007
0.292,0.003954,11.784007
0.293,0.002344,11.614547
0.294,0.001056,11.614547
0.295,0.000895,11.106164
0.296,0.002183,11.614547
0.297,0.005564,11.896981
0.298,0.010234,11.72752
0.299,0.01442,11.812251
0.3,0.017801,11.586303
0.301,0.019894,12.038198
0.302,0.020538,11.953468
0.303,0.019894,11.755764
0.304,0.01925,11.416842
0.305,0.019089,11.360355
0.306,0.018445,11.303869
0.307,0.018445,11.529816
0.308,0.018445,11.303869
0.309,0.016996,11.416842
0.31,0.01442,11.445086
0.311,0.011361,11.840494
0.312,0.008785,11.699277
0.313,0.007013,11.671033
0.314,0.005081,11.699277
0.315,0.003632,11.586303
0.316,0.002183,11.671033
0.317,0.000573,11.64279
0.318,-0.008765,11.671033
0.319,-0.006511,11.388599
0.32,-0.018265,11.614547
0.321,-0.024866,11.586303
0.322,-0.034044,11.812251
0.323,-0.041933,11.699277
0.324,-0.047891,11.72752
0.325,-0.051755,11.529816
0.326,-0.053043,11.699277
0.327,-0.053043,11.501573
0.328,-0.051594,11.586303
0.329,-0.048535,11.586303
0.33,-0.042417,11.671033
0.331,-0.033722,12.094685
0.332,-0.022934,11.64279
0.333,-0.011342,11.55806
0.334,0.000412,11.501573
0.335,0.011683,11.445086
0.336,0.021343,11.445086
0.337,0.029555,11.529816
0.338,0.037283,11.614547
0.339,0.043402,11.840494
0.34,0.04791,12.009955
0.341,0.049681,12.038198
0.342,0.049037,12.122929
0.343,0.047427,12.179416
0.344,0.045656,12.151172
0.345,0.044851,12.235903
0.346,0.045012,12.066442
0.347,0.045495,12.094685
0.348,0.045656,11.868738
0.349,0.046139,11.64279
0.35,0.045656,11.64279
0.351,0.043402,11.671033
0.352,0.039859,11.529816
0.353,0.034224,11.614547
0.354,0.027623,11.840494
0.355,0.020216,11.925225
0.356,0.012488,11.925225
0.357,0.005403,11.981711
0.358,0.000251,12.122929
0.359,-0.002647,12.151172
0.36,-0.004096,12.179416
0.361,-0.004096,11.925225
0.362,-0.00474,11.896981
0.363,-0.006189,11.699277
0.364,-0.006833,11.586303
0.365,-0.007638,11.64279
0.366,-0.00941,11.953468
0.367,-0.012147,11.953468
0.368,-0.016172,12.094685
0.369,-0.024222,12.009955
0.37,-0.045959,11.925225
0.371,-0.064314,11.755764
0.372,-0.077034,11.812251
0.373,-0.091202,11.868738
0.374,-0.099897,11.840494
0.375,-0.105371,11.953468
0.376,-0.105693,11.953468
0.377,-0.101507,11.473329
0.378,-0.093779,11.896981
0.379,-0.084279,12.094685
0.38,-0.071881,11.812251
0.381,-0.05417,11.529816
0.382,-0.032112,11.586303
0.383,-0.008927,11.473329
0.384,0.012166,11.755764
0.385,0.029877,11.896981
0.386,0.043724,11.981711
0.387,0.053706,11.784007
0.388,0.060952,11.840494
0.389,0.067231,11.953468
0.39,0.073832,11.868738
0.391,0.079146,11.784007
0.392,0.082688,11.812251
0.393,0.085103,11.896981
0.394,0.086552,11.953468
0.395,0.087679,11.953468
0.396,0.087035,11.925225
0.397,0.085425,11.784007
0.398,0.083332,11.840494
0.399,0.079629,11.812251
0.4,0.075121,11.64279
0.401,0.069163,11.529816
0.402,0.060147,11.72752
0.403,0.054994,11.671033
0.404,0.050164,11.614547
0.405,0.039215,11.671033
0.406,0.030843,11.840494
0.407,0.026013,11.840494
0.408,0.019894,11.755764
0.409,0.013937,11.72752
0.41,0.009751,11.953468
0.411,0.005403,11.981711
0.412,9.00E-05,11.840494
0.413,-0.004257,11.812251
0.414,-0.009088,11.784007
0.415,-0.013918,11.981711
0.416,-0.01907,11.699277
0.417,-0.022612,11.840494
0.418,-0.025027,11.755764
0.419,-0.026316,11.925225
0.42,-0.027121,12.066442
0.421,-0.027765,12.094685
0.422,-0.026799,12.518337
0.423,-0.025833,11.72752
0.424,-0.024061,11.868738
0.425,-0.022773,11.840494
0.426,-0.020841,11.812251
0.427,-0.019231,12.179416
0.428,-0.017621,12.320633
0.429,-0.015528,12.490094
0.43,-0.013113,12.292389
0.431,-0.010376,12.320633
0.432,-0.007316,12.151172
0.433,-0.004418,12.094685
0.434,-0.002808,11.840494
0.435,-0.003774,11.981711
0.436,-0.006189,12.122929
0.437,-0.010215,12.320633
0.438,-0.015689,12.405363
0.439,-0.023256,12.574824
0.44,-0.030502,12.37712
0.441,-0.035493,12.264146
0.442,-0.038391,12.094685
0.443,-0.040162,12.094685
0.444,-0.040162,12.207659
0.445,-0.038391,12.207659
0.446,-0.02857,12.292389
0.447,-0.019231,12.46185
0.448,-0.018587,12.292389
0.449,-0.016655,12.066442
0.45,-0.009571,12.264146
0.451,-0.001037,12.038198
0.452,0.004598,12.179416
0.453,0.008463,12.207659
0.454,0.013132,12.292389
0.455,0.018284,12.292389
0.456,0.023436,12.348876
0.457,0.027301,12.37712
0.458,0.03036,12.292389
0.459,0.033258,12.292389
0.46,0.035673,12.348876
0.461,0.036478,12.320633
0.462,0.037122,12.235903
0.463,0.037283,12.038198
0.464,0.036317,12.207659
0.465,0.03519,12.122929
0.466,0.033902,11.896981
0.467,0.03197,11.586303
0.468,0.029233,12.009955
0.469,0.026979,12.518337
0.47,0.02408,12.490094
0.471,0.021665,12.179416
0.472,0.018767,12.37712
0.473,0.015547,12.405363
0.474,0.011361,12.546581
0.475,0.006852,12.235903
0.476,0.001539,12.094685
0.477,-0.003774,11.868738
0.478,-0.009088,11.953468
0.479,-0.01424,11.868738
0.48,-0.018909,12.264146
0.481,-0.0239,12.348876
0.482,-0.027926,12.320633
0.483,-0.03018,12.292389
0.484,-0.030341,12.264146
0.485,-0.028087,12.009955
0.486,-0.023095,12.009955
0.487,-0.024544,12.122929
0.488,-0.01907,12.179416
0.489,-0.014723,12.320633
0.49,-0.008443,12.235903
0.491,-0.002164,12.348876
0.492,0.006208,12.433607
0.493,0.013615,12.348876
0.494,0.019733,12.179416
0.495,0.025208,12.066442
0.496,0.029394,12.038198
0.497,0.031648,12.094685
0.498,0.032936,12.066442
0.499,0.032292,12.094685
0.5,0.031648,12.122929
0.501,0.03036,12.038198
0.502,0.029072,12.264146
0.503,0.026818,12.235903
0.504,0.024241,12.207659
0.505,0.019894,12.348876
0.506,0.01603,12.37712
0.507,0.011361,12.264146
0.508,0.005725,12.546581
0.509,9.00E-05,12.857259
0.51,-0.005867,11.981711
0.511,-0.012308,12.207659
0.512,-0.018587,11.953468
0.513,-0.024866,12.066442
0.514,-0.030341,12.235903
0.515,-0.033883,12.518337
0.516,-0.035976,12.716041
0.517,-0.038391,12.687798
0.518,-0.041772,12.631311
0.519,-0.04612,12.207659
0.52,-0.049501,12.179416
0.521,-0.051272,12.405363
0.522,-0.05095,12.659554
0.523,-0.048213,12.687798
0.524,-0.042255,12.574824
0.525,-0.0334,12.518337
0.526,-0.023578,12.264146
0.527,-0.014562,12.433607
0.528,-0.006994,12.433607
0.529,-0.001198,12.320633
0.53,0.00331,12.46185
0.531,0.00798,12.687798
0.532,0.009107,12.716041
0.533,0.009107,12.716041
0.534,0.005242,12.46185
0.535,0.000895,12.292389
0.536,9.00E-05,12.405363
0.537,0.000895,12.292389
0.538,-0.000715,12.179416
0.539,-0.003613,12.490094
0.54,-0.005223,12.405363
0.541,-0.004257,12.603068
0.542,-0.002003,12.490094
0.543,-0.000715,12.490094
0.544,0.000412,12.292389
0.545,0.001056,12.405363
0.546,0.000412,12.207659
0.547,-0.001359,12.292389
0.548,-0.004579,12.094685
0.549,-0.00796,11.784007
0.55,-0.011664,12.490094
0.551,-0.014562,12.518337
0.552,-0.017621,12.292389
0.553,-0.018748,12.518337
0.554,-0.017621,12.348876
0.555,-0.015689,12.264146
0.556,-0.01424,12.038198
0.557,-0.013757,12.151172
0.558,-0.012147,12.009955
0.559,-0.009732,12.038198
0.56,-0.006189,12.46185
0.561,-0.002647,12.264146
0.562,0.000573,12.348876
0.563,0.004276,12.37712
0.564,0.008302,12.348876
0.565,0.012649,12.264146
0.566,0.01442,12.094685
0.567,0.020216,12.094685
0.568,0.017157,11.953468
0.569,0.013132,12.009955
0.57,0.012649,12.122929
0.571,0.009429,12.37712
0.572,0.006852,12.292389
0.573,0.003793,12.235903
0.574,0.000895,12.179416
0.575,-7.10E-05,12.348876
0.576,-0.000232,12.151172
0.577,0.000573,12.094685
0.578,0.001217,11.953468
0.579,0.001861,12.066442
0.58,0.002183,12.094685
0.581,0.000573,12.122929
0.582,-0.002164,12.264146
0.583,-0.00635,12.038198
0.584,-0.010859,12.207659
0.585,-0.016172,12.235903
0.586,-0.022773,12.631311
0.587,-0.029214,11.981711
0.588,-0.035815,11.840494
0.589,-0.03984,11.925225
0.59,-0.04145,12.207659
0.591,-0.040806,12.433607
0.592,-0.036137,12.518337
0.593,-0.028731,12.603068
0.594,-0.021163,12.490094
0.595,-0.016011,12.235903
0.596,-0.013113,12.094685
0.597,-0.010215,12.292389
0.598,-0.007155,12.264146
0.599,-0.003613,12.235903
0.6,-0.000554,12.348876
0.601,0.002827,12.687798
0.602,0.00492,12.490094
0.603,0.006208,12.603068
0.604,0.007174,12.546581
0.605,0.00798,12.348876
0.606,0.008302,12.320633
0.607,0.008463,12.235903
0.608,0.00959,12.235903
0.609,0.011844,12.320633
0.61,0.013776,12.235903
0.611,0.013615,12.433607
0.612,0.010878,12.320633
0.613,0.010556,12.46185
0.614,0.009912,12.631311
0.615,0.008141,12.433607
0.616,0.000895,12.405363
0.617,-0.009249,12.264146
0.618,-0.016977,12.094685
0.619,-0.01907,12.094685
0.62,-0.021324,12.235903
0.621,-0.025349,12.264146
0.622,-0.027765,12.405363
0.623,-0.028731,12.264146
0.624,-0.030019,12.235903
0.625,-0.03018,12.348876
0.626,-0.027604,12.235903
0.627,-0.023578,12.094685
0.628,-0.019392,11.755764
0.629,-0.016333,12.603068
0.63,-0.013757,12.038198
0.631,-0.012308,12.405363
0.632,-0.012147,12.37712
0.633,-0.012469,12.066442
0.634,-0.009732,11.840494
0.635,-0.004257,11.925225
0.636,0.003149,11.840494
0.637,0.010717,11.868738
0.638,0.017318,12.009955
0.639,0.021987,12.151172
0.64,0.026013,12.179416
0.641,0.02875,12.348876
0.642,0.029877,12.038198
0.643,0.029072,12.122929
0.644,0.026979,12.235903
0.645,0.025369,12.320633
0.646,0.022792,12.094685
0.647,0.021665,11.812251
0.648,0.01442,11.72752
0.649,0.022953,11.812251
0.65,0.017157,11.812251
0.651,0.014742,11.896981
0.652,0.014742,12.038198
0.653,0.013776,12.038198
0.654,0.015225,12.066442
0.655,0.016191,12.151172
0.656,0.015386,12.038198
0.657,0.01442,12.122929
0.658,0.013615,12.066442
0.659,0.012649,12.038198
0.66,0.011844,11.925225
0.661,0.010234,11.896981
0.662,0.007657,11.784007
0.663,0.004437,11.896981
0.664,-0.000876,11.868738
0.665,-0.008121,12.066442
0.666,-0.01585,12.009955
0.667,-0.022773,12.179416
0.668,-0.027765,11.953468
0.669,-0.03179,12.235903
0.67,-0.036459,11.784007
0.671,-0.041289,11.699277
0.672,-0.046281,11.671033
0.673,-0.052721,12.151172
0.674,-0.062704,12.348876
0.675,-0.073169,12.546581
0.676,-0.083313,12.348876
0.677,-0.090075,11.953468
0.678,-0.093618,11.953468
0.679,-0.091041,12.320633
0.68,-0.083635,12.37712
0.681,-0.07172,12.179416
0.682,-0.057551,12.151172
0.683,-0.042739,12.066442
0.684,-0.025994,12.066442
0.685,-0.008604,12.264146
0.686,0.006047,12.37712
0.687,0.021665,12.433607
0.688,0.032453,12.235903
0.689,0.042114,12.235903
0.69,0.049198,12.348876
0.691,0.054672,12.292389
0.692,0.056443,12.348876
0.693,0.054833,12.066442
0.694,0.050486,12.179416
0.695,0.046944,12.066442
0.696,0.045173,12.094685
0.697,0.043241,12.151172
0.698,0.041309,11.925225
0.699,0.037766,11.981711
0.7,0.033902,12.179416
0.701,0.028428,12.151172
0.702,0.021665,12.122929
0.703,0.015064,12.179416
0.704,0.0112,12.320633
0.705,0.008785,12.207659
0.706,0.006852,12.207659
0.707,0.004115,12.151172
0.708,0.002827,12.235903
0.709,0.002022,12.122929
0.71,0.001539,12.094685
0.711,9.00E-05,11.953468
0.712,-0.002808,11.55806
0.713,-0.00474,12.038198
0.714,-0.005384,12.348876
0.715,-0.003935,12.179416
0.716,-0.002808,12.122929
0.717,-0.002164,12.405363
0.718,-0.002164,12.151172
0.719,-0.002164,11.896981
0.72,-0.001681,11.840494
0.721,-0.000876,11.840494
0.722,-0.001037,11.868738
0.723,-0.002486,11.784007
0.724,-0.00474,11.925225
0.725,-0.006833,12.122929
0.726,-0.008121,12.264146
0.727,-0.007799,12.207659
0.728,-0.005706,12.094685
0.729,-0.002808,12.151172
0.73,0.000412,12.235903
0.731,0.003149,11.784007
0.732,0.00798,11.755764
0.733,0.002183,11.981711
0.734,-7.10E-05,11.953468
0.735,-0.002486,11.953468
0.736,-0.004579,12.009955
0.737,-0.006028,12.37712
0.738,-0.008765,12.122929
0.739,-0.011503,11.896981
0.74,-0.013918,12.179416
0.741,-0.014723,12.009955
0.742,-0.015206,11.840494
0.743,-0.015206,11.896981
0.744,-0.013757,12.066442
0.745,-0.011664,11.981711
0.746,-0.008443,12.094685
0.747,-0.006189,12.122929
0.748,-0.003613,12.687798
0.749,-0.000876,12.122929
0.75,0.002022,11.981711
0.751,0.003632,12.009955
0.752,0.004598,11.812251
0.753,0.005242,11.868738
0.754,0.004759,11.868738
0.755,0.003632,12.151172
0.756,0.002022,12.264146
0.757,-0.000393,12.348876
0.758,-0.002969,12.518337
0.759,-0.005867,12.518337
0.76,-0.008604,12.574824
0.761,-0.011181,12.292389
0.762,-0.013274,11.981711
0.763,-0.015367,11.896981
0.764,-0.017138,12.122929
0.765,-0.019875,12.179416
0.766,-0.024383,12.405363
0.767,-0.030502,12.405363
0.768,-0.038069,12.546581
0.769,-0.046442,12.46185
0.77,-0.054975,12.151172
0.771,-0.06367,12.066442
0.772,-0.070915,12.264146
0.773,-0.076873,12.348876
0.774,-0.073974,12.405363
0.775,-0.070915,12.348876
0.776,-0.07011,12.292389
0.777,-0.05578,12.038198
0.778,-0.042094,12.235903
0.779,-0.028892,12.264146
0.78,-0.014884,12.264146
0.781,-0.00152,12.264146
0.782,0.011683,12.46185
0.783,0.024886,12.179416
0.784,0.037283,12.179416
0.785,0.048071,12.207659
0.786,0.056282,12.235903
0.787,0.06063,12.009955
0.788,0.06224,12.094685
0.789,0.061113,12.122929
0.79,0.058537,12.122929
0.791,0.054994,11.812251
0.792,0.051774,11.473329
0.793,0.048876,11.586303
0.794,0.0463,12.151172
0.795,0.043563,12.37712
0.796,0.040986,12.405363
0.797,0.039215,12.122929
0.798,0.0368,12.122929
0.799,0.033741,12.179416
0.8,0.031326,12.405363
0.801,0.028267,12.235903
0.802,0.025208,12.066442
0.803,0.021182,11.868738
0.804,0.01764,11.925225
0.805,0.013293,11.868738
0.806,0.007335,11.981711
0.807,0.000251,11.784007
0.808,-0.005545,11.925225
0.809,-0.009893,12.151172
0.81,-0.01263,12.235903
0.811,-0.015367,12.009955
0.812,-0.018909,12.122929
0.813,-0.021163,11.953468
0.814,-0.02696,11.868738
0.815,-0.02551,11.925225
0.816,-0.028892,11.868738
0.817,-0.029858,11.953468
0.818,-0.028409,12.094685
0.819,-0.027765,11.953468
0.82,-0.025833,12.151172
0.821,-0.023739,11.868738
0.822,-0.020519,11.925225
0.823,-0.01746,11.755764
0.824,-0.012952,11.896981
0.825,-0.008443,11.953468
0.826,-0.003452,12.066442
0.827,0.001217,11.953468
0.828,0.005725,12.038198
0.829,0.008624,12.518337
0.83,0.00959,12.066442
0.831,0.009912,11.925225
0.832,0.009429,11.953468
0.833,0.008624,11.755764
0.834,0.007174,11.671033
0.835,0.005886,11.699277
0.836,0.00492,12.009955
0.837,0.004759,12.235903
0.838,0.004437,12.348876
0.839,0.00492,12.518337
0.84,0.00492,12.490094
0.841,0.004115,12.292389
0.842,0.002666,12.348876
0.843,0.001056,12.264146
0.844,-0.001198,11.953468
0.845,-0.004257,11.784007
0.846,-0.008121,12.009955
0.847,-0.014079,12.122929
0.848,-0.023095,12.122929
0.849,-0.034527,12.46185
0.85,-0.048857,12.46185
0.851,-0.065119,12.348876
0.852,-0.079932,12.292389
0.853,-0.092007,11.840494
0.854,-0.099897,12.009955
0.855,-0.101829,12.320633
0.856,-0.098609,12.320633
0.857,-0.101668,12.009955
0.858,-0.086211,12.009955
0.859,-0.068983,12.151172
0.86,-0.049501,12.179416
0.861,-0.029214,12.038198
0.862,-0.011986,12.207659
0.863,0.001861,12.207659
0.864,0.013776,12.038198
0.865,0.021826,12.066442
0.866,0.026818,11.981711
0.867,0.029233,11.925225
0.868,0.029877,11.586303
0.869,0.030199,11.64279
0.87,0.030682,11.72752
0.871,0.032453,12.151172
0.872,0.036639,12.320633
0.873,0.042436,11.953468
0.874,0.049198,11.896981
0.875,0.054189,11.953468
0.876,0.056926,12.094685
0.877,0.055638,12.094685
0.878,0.053223,12.122929
0.879,0.051613,12.122929
0.88,0.050969,12.235903
0.881,0.05113,12.264146
0.882,0.051613,12.009955
0.883,0.052257,12.207659
0.884,0.052579,12.094685
0.885,0.05274,11.981711
0.886,0.051613,11.840494
0.887,0.049681,11.868738
0.888,0.046622,11.755764
0.889,0.043563,11.755764
0.89,0.041309,11.868738
0.891,0.03841,11.72752
0.892,0.036156,11.896981
0.893,0.033741,12.094685
0.894,0.031648,12.066442
0.895,0.029233,12.122929
0.896,0.027301,12.151172
0.897,0.026174,12.122929
0.898,0.025208,12.179416
0.899,0.025047,12.122929
0.9,0.024564,12.179416
0.901,0.023114,12.066442
0.902,0.015708,11.981711
0.903,0.021182,11.925225
0.904,0.013454,11.812251
0.905,0.010556,11.896981
0.906,0.005242,12.038198
0.907,0.001056,12.264146
0.908,-0.004418,12.094685
0.909,-0.011342,12.066442
0.91,-0.017299,12.066442
0.911,-0.023256,12.094685
0.912,-0.02696,11.925225
0.913,-0.028731,11.784007
0.914,-0.02857,11.840494
0.915,-0.026799,11.925225
0.916,-0.025349,11.953468
0.917,-0.025188,12.066442
0.918,-0.025027,12.179416
0.919,-0.024866,12.066442
0.92,-0.025349,11.896981
0.921,-0.02696,11.699277
0.922,-0.03018,11.868738
0.923,-0.033239,12.122929
0.924,-0.035493,12.405363
0.925,-0.037425,12.546581
0.926,-0.039518,12.292389
0.927,-0.04145,12.151172
0.928,-0.041289,12.122929
0.929,-0.039518,12.038198
0.93,-0.036137,12.235903
0.931,-0.030663,12.37712
0.932,-0.024544,12.46185
0.933,-0.019231,12.348876
0.934,-0.01585,12.292389
0.935,-0.014884,12.179416
0.936,-0.014884,12.066442
0.937,-0.013918,12.094685
0.938,-0.012469,12.207659
0.939,-0.010537,12.37712
0.94,-0.004418,12.179416
0.941,-0.002003,12.433607
0.942,-0.003452,12.179416
0.943,-0.008604,12.122929
0.944,-0.008927,11.981711
0.945,-0.006672,12.009955
0.946,-0.005867,12.066442
0.947,-0.007799,12.094685
0.948,-0.007638,12.151172
0.949,-0.005867,12.37712
0.95,-0.003613,12.235903
0.951,-0.001681,12.122929
0.952,-0.000393,12.207659
0.953,-7.10E-05,12.066442
0.954,-0.001037,12.038198
0.955,-0.00474,11.671033
0.956,-0.007799,11.755764
0.957,-0.010698,12.066442
0.958,-0.012952,12.038198
0.959,-0.012469,12.122929
0.96,-0.010054,12.207659
0.961,-0.005384,12.151172
0.962,-0.000554,11.868738
0.963,0.002183,11.755764
0.964,0.004115,11.699277
0.965,0.006691,11.784007
0.966,0.009268,11.925225
0.967,0.012488,12.038198
0.968,0.01442,12.094685
0.969,0.015708,12.094685
0.97,0.016835,12.151172
0.971,0.017962,12.038198
0.972,0.020699,12.066442
0.973,0.022953,11.953468
0.974,0.025691,11.868738
0.975,0.022631,11.812251
0.976,0.034224,11.755764
0.977,0.030521,11.671033
0.978,0.028589,11.671033
0.979,0.030038,11.896981
0.98,0.029394,11.981711
0.981,0.027623,11.953468
0.982,0.026335,11.896981
0.983,0.024886,12.207659
0.984,0.023436,12.038198
0.985,0.021826,11.925225
0.986,0.020377,11.925225
0.987,0.017801,11.981711
0.988,0.014259,11.896981
0.989,0.010395,11.784007
0.99,0.006369,11.812251
0.991,0.001217,11.72752
0.992,-0.003291,11.812251
0.993,-0.007638,11.868738
0.994,-0.01102,11.896981
0.995,-0.013113,11.868738
0.996,-0.015367,11.868738
0.997,-0.017943,12.405363
0.998,-0.021163,11.981711
0.999,-0.024866,11.925225
1,-0.029375,11.614547
1.001,-0.034205,11.72752
1.002,-0.038069,12.066442
1.003,-0.041128,12.292389
1.004,-0.044188,12.518337
1.005,-0.045959,12.37712
1.006,-0.049501,12.151172
1.007,-0.053526,11.953468
1.008,-0.05578,12.038198
1.009,-0.05578,12.122929
1.01,-0.05256,12.46185
1.011,-0.045959,12.46185
1.012,-0.037908,12.292389
1.013,-0.029375,12.207659
1.014,-0.020358,12.038198
1.015,-0.011664,12.151172
1.016,-0.004257,12.207659
1.017,0.001217,12.320633
1.018,0.007013,12.264146
1.019,0.011683,12.320633
1.02,0.016352,12.348876
1.021,0.018284,12.46185
1.022,0.014742,12.37712
1.023,0.009107,12.179416
1.024,0.007013,12.094685
1.025,0.00798,12.038198
1.026,0.012327,12.094685
1.027,0.016513,11.953468
1.028,0.019411,12.066442
1.029,0.022953,12.207659
1.03,0.02553,12.179416
1.031,0.028106,12.292389
1.032,0.029877,12.207659
1.033,0.031487,12.292389
1.034,0.03197,12.264146
1.035,0.031326,12.320633
1.036,0.030521,12.264146
1.037,0.02875,12.151172
1.038,0.026496,12.179416
1.039,0.021826,12.066442
1.04,0.015869,12.009955
1.041,0.009268,12.179416
1.042,0.004115,11.64279
1.043,0.000573,11.896981
1.044,-0.000393,12.179416
1.045,-0.000393,12.264146
1.046,0.000573,12.405363
1.047,0.0017,12.207659
1.048,0.003471,12.292389
1.049,0.005564,12.122929
1.05,0.006852,11.981711
1.051,0.008302,11.925225
1.052,0.008463,11.953468
1.053,0.006691,11.868738
1.054,0.00492,11.784007
1.055,0.004276,12.235903
1.056,0.005242,12.151172
1.057,0.006369,12.264146
1.058,0.008463,12.264146
1.059,0.009429,12.235903
1.06,0.009429,12.292389
1.061,0.008463,12.151172
1.062,0.006691,12.151172
1.063,9.00E-05,11.840494
1.064,0.002827,12.009955
1.065,-0.00474,11.953468
1.066,-0.005062,11.981711
1.067,-0.007638,12.151172
1.068,-0.009893,12.094685
1.069,-0.012469,12.207659
1.07,-0.015045,12.038198
1.071,-0.017943,12.179416
1.072,-0.02068,12.179416
1.073,-0.023578,11.896981
1.074,-0.025672,11.953468
1.075,-0.027282,12.009955
1.076,-0.028248,12.009955
1.077,-0.028248,12.207659
1.078,-0.028731,12.066442
1.079,-0.028087,12.490094
1.08,-0.027282,12.066442
1.081,-0.024544,12.122929
1.082,-0.021324,11.840494
1.083,-0.016816,11.896981
1.084,-0.013757,12.066442
1.085,-0.009893,12.37712
1.086,-0.005545,12.433607
1.087,-0.00152,12.659554
1.088,0.000895,12.574824
1.089,0.001056,12.433607
1.09,-0.001198,12.37712
1.091,-0.005545,12.179416
1.092,-0.010215,12.151172
1.093,-0.015045,12.207659
1.094,-0.018748,12.235903
1.095,-0.019392,12.546581
1.096,-0.018426,12.659554
1.097,-0.014723,12.574824
1.098,-0.01102,12.574824
1.099,-0.006672,12.518337
1.1,-0.003774,12.405363
1.101,-0.002808,12.151172
1.102,-0.003613,12.122929
1.103,-0.005545,12.264146
1.104,-0.007799,12.37712
1.105,-0.008927,12.235903
1.106,-0.005384,12.490094
1.107,-7.10E-05,12.37712
1.108,0.005081,12.546581
1.109,0.005564,12.292389
1.11,0.004598,12.066442
1.111,0.00798,12.122929
1.112,0.013454,12.179416
1.113,0.016674,12.207659
1.114,0.015869,12.207659
1.115,0.014098,12.348876
1.116,0.012649,12.433607
1.117,0.00959,12.235903
1.118,0.005081,12.264146
1.119,-0.000554,12.207659
1.12,-0.005706,12.122929
1.121,-0.009732,12.235903
1.122,-0.01263,12.151172
1.123,-0.014401,11.896981
1.124,-0.01585,11.614547
1.125,-0.015689,12.405363
1.126,-0.01585,12.179416
1.127,-0.015045,12.405363
1.128,-0.014079,12.207659
1.129,-0.013596,12.235903
1.13,-0.013274,11.812251
1.131,-0.012791,11.896981
1.132,-0.012791,11.812251
1.133,-0.012791,11.981711
1.134,-0.01102,11.925225
1.135,-0.006994,12.292389
1.136,-0.002164,12.151172
1.137,0.002827,12.207659
1.138,0.007496,12.122929
1.139,0.012649,12.066442
1.14,0.016674,11.896981
1.141,0.014581,11.896981
1.142,0.023436,11.784007
1.143,0.016352,11.812251
1.144,0.014259,11.868738
1.145,0.013615,11.981711
1.146,0.013293,12.038198
1.147,0.014742,12.009955
1.148,0.014259,12.151172
1.149,0.013615,12.122929
1.15,0.012971,12.094685
1.151,0.011361,11.953468
1.152,0.008302,11.953468
1.153,0.004276,11.953468
1.154,-0.001037,11.953468
1.155,-0.007155,11.755764
1.156,-0.012469,11.868738
1.157,-0.017782,12.009955
1.158,-0.022773,12.094685
1.159,-0.027443,12.009955
1.16,-0.032434,12.320633
1.161,-0.037586,11.896981
1.162,-0.041933,11.812251
1.163,-0.044993,11.72752
1.164,-0.045154,12.151172
1.165,-0.042417,12.292389
1.166,-0.035815,12.46185
1.167,-0.027121,12.433607
1.168,-0.01746,12.151172
1.169,-0.008604,11.896981
1.17,-0.002164,11.840494
1.171,0.0017,12.038198
1.172,0.003471,12.066442
1.173,0.004598,12.235903
1.174,0.005725,12.37712
1.175,0.008141,12.46185
1.176,0.010717,12.574824
1.177,0.012649,12.292389
1.178,0.013615,12.37712
1.179,0.013615,12.235903
1.18,0.011522,12.066442
1.181,0.008946,12.009955
1.182,0.006852,11.953468
1.183,0.004759,12.038198
1.184,0.003149,12.207659
1.185,0.001217,12.292389
1.186,0.0017,12.151172
1.187,0.002827,12.264146
1.188,0.003793,12.320633
1.189,0.000573,12.292389
1.19,-0.005384,11.953468
1.191,-0.005867,12.122929
1.192,-0.004901,11.925225
1.193,-0.006028,12.066442
1.194,-0.009732,12.009955
1.195,-0.01263,12.264146
1.196,-0.015528,12.207659
1.197,-0.019392,12.094685
1.198,-0.022934,12.094685
1.199,-0.0239,11.868738
1.2,-0.024222,11.925225
1.201,-0.023417,11.501573
1.202,-0.020841,12.292389
1.203,-0.017299,12.066442
1.204,-0.013435,11.981711
1.205,-0.008443,12.094685
1.206,-0.003774,12.094685
1.207,0.000895,11.981711
1.208,0.006208,11.699277
1.209,0.011683,11.755764
1.21,0.01603,11.72752
1.211,0.018445,11.812251
1.212,0.019572,11.868738
1.213,0.02247,12.009955
1.214,0.026496,12.038198
1.215,0.031487,12.094685
1.216,0.036478,12.122929
1.217,0.040825,12.038198
1.218,0.045334,12.094685
1.219,0.050325,11.953468
1.22,0.055155,12.122929
1.221,0.058215,12.009955
1.222,0.058376,12.066442
1.223,0.05596,11.896981
1.224,0.052418,12.009955
1.225,0.047749,11.812251
1.226,0.043241,11.784007
1.227,0.038732,11.840494
1.228,0.031165,11.671033
1.229,0.028267,11.72752
1.23,0.017157,11.784007
1.231,0.009429,11.755764
1.232,0.002988,11.840494
1.233,-0.005384,11.981711
1.234,-0.011986,11.981711
1.235,-0.017943,11.981711
1.236,-0.021324,12.066442
1.237,-0.023417,11.925225
1.238,-0.025027,11.784007
1.239,-0.02551,11.812251
1.24,-0.02551,11.812251
1.241,-0.027604,11.671033
1.242,-0.031146,11.868738
1.243,-0.035654,11.896981
1.244,-0.041289,11.953468
1.245,-0.045315,12.518337
1.246,-0.047891,11.755764
1.247,-0.048213,11.64279
1.248,-0.047891,11.614547
1.249,-0.047086,12.009955
1.25,-0.044832,12.292389
1.251,-0.04145,12.46185
1.252,-0.036942,12.292389
1.253,-0.031951,12.151172
1.254,-0.025994,12.038198
1.255,-0.019714,11.896981
1.256,-0.01263,11.981711
1.257,-0.003935,12.122929
1.258,0.004437,12.292389
1.259,0.012488,12.433607
1.26,0.020538,12.433607
1.261,0.028267,12.292389
1.262,0.034546,12.292389
1.263,0.04002,12.348876
1.264,0.044046,12.320633
1.265,0.046944,12.066442
1.266,0.048554,12.151172
1.267,0.04952,12.207659
1.268,0.050003,12.122929
1.269,0.050647,12.122929
1.27,0.050486,11.981711
1.271,0.048876,12.038198
1.272,0.046139,12.066442
1.273,0.041953,12.038198
1.274,0.037122,12.009955
1.275,0.031004,11.896981
1.276,0.025208,12.151172
1.277,0.019894,12.179416
1.278,0.015869,12.066442
1.279,0.015869,12.348876
1.28,0.013937,12.264146
1.281,0.012649,12.264146
1.282,0.00959,12.348876
1.283,0.002988,12.348876
1.284,-0.004579,12.151172
1.285,-0.009571,11.953468
1.286,-0.011825,12.038198
1.287,-0.013596,12.009955
1.288,-0.019553,12.094685
1.289,-0.025833,12.207659
1.29,-0.030341,12.264146
1.291,-0.033239,12.235903
1.292,-0.035332,12.179416
1.293,-0.034366,12.179416
1.294,-0.030019,12.066442
1.295,-0.024061,11.812251
1.296,-0.01746,11.755764
1.297,-0.010215,12.292389
1.298,-0.003935,12.151172
1.299,0.001217,12.235903
1.3,0.005403,12.292389
1.301,0.008946,12.179416
1.302,0.01281,12.066442
1.303,0.01603,11.925225
1.304,0.018445,11.784007
1.305,0.020216,11.784007
1.306,0.02086,11.812251
1.307,0.020055,11.699277
1.308,0.017962,11.699277
1.309,0.014742,11.925225
1.31,0.011522,12.151172
1.311,0.008141,12.207659
1.312,0.005564,12.207659
1.313,0.001861,12.094685
1.314,-0.002486,12.094685
1.315,-0.006511,11.981711
1.316,-0.010215,11.812251
1.317,-0.008927,11.868738
1.318,-0.017299,12.009955
1.319,-0.017299,11.953468
1.32,-0.019714,11.896981
1.321,-0.022129,11.953468
1.322,-0.026638,12.179416
1.323,-0.030985,12.009955
1.324,-0.03501,11.981711
1.325,-0.037747,11.925225
1.326,-0.041772,11.812251
1.327,-0.046603,11.755764
1.328,-0.049662,12.066442
1.329,-0.050789,12.066442
1.33,-0.048696,12.405363
1.331,-0.043705,11.812251
1.332,-0.036942,11.784007
1.333,-0.028892,11.784007
1.334,-0.021807,11.840494
1.335,-0.016816,12.122929
1.336,-0.013757,12.518337
1.337,-0.011825,12.490094
1.338,-0.011181,12.46185
1.339,-0.010537,12.207659
1.34,-0.010376,12.066442
1.341,-0.01102,11.925225
1.342,-0.011986,11.925225
1.343,-0.012147,12.009955
1.344,-0.011181,12.179416
1.345,-0.006994,12.264146
1.346,0.000251,12.490094
1.347,0.011039,12.433607
1.348,0.023114,12.348876
1.349,0.033258,12.348876
1.35,0.039376,12.179416
1.351,0.041792,12.179416
1.352,0.04002,12.235903
1.353,0.035995,12.038198
1.354,0.031487,11.953468
1.355,0.028106,12.094685
1.356,0.024564,12.122929
1.357,0.021182,12.122929
1.358,0.017962,12.179416
1.359,0.015064,12.264146
1.36,0.014259,12.320633
1.361,0.012005,12.235903
1.362,0.008624,12.46185
1.363,0.002505,12.37712
1.364,-0.007638,12.320633
1.365,-0.015045,12.038198
1.366,-0.018587,11.981711
1.367,-0.020197,12.122929
1.368,-0.02229,12.094685
1.369,-0.024383,12.122929
1.37,-0.025027,12.179416
1.371,-0.02551,12.405363
1.372,-0.025833,12.151172
1.373,-0.024544,12.066442
1.374,-0.021002,11.981711
1.375,-0.016333,12.009955
1.376,-0.012308,11.699277
1.377,-0.009249,12.264146
1.378,-0.007799,12.207659
1.379,-0.007155,12.151172
1.38,-0.006672,12.179416
1.381,-0.006028,12.207659
1.382,-0.005545,12.122929
1.383,-0.005223,11.840494
1.384,-0.004096,11.755764
1.385,-0.002003,11.812251
1.386,0.000734,11.755764
1.387,0.003632,11.896981
1.388,0.005564,12.038198
1.389,0.006852,12.066442
1.39,0.006691,12.038198
1.391,0.005081,12.094685
1.392,0.002344,12.066442
1.393,-0.001359,12.009955
1.394,-0.005223,11.784007
1.395,-0.010859,11.72752
1.396,-0.015689,11.840494
1.397,-0.021807,11.896981
1.398,-0.024061,11.896981
1.399,-0.023256,11.953468
1.4,-0.021485,12.094685
1.401,-0.021002,12.009955
1.402,-0.021968,12.066442
1.403,-0.025027,11.896981
1.404,-0.031629,11.812251
1.405,-0.041128,11.840494
1.406,-0.052238,11.812251
1.407,-0.063509,12.038198
1.408,-0.072686,12.066442
1.409,-0.078322,12.518337
1.41,-0.079449,11.896981
1.411,-0.076551,11.72752
1.412,-0.07011,11.925225
1.413,-0.06045,12.405363
1.414,-0.048696,12.490094
1.415,-0.035171,12.320633
1.416,-0.022129,12.292389
1.417,-0.008765,12.151172
1.418,0.004598,12.038198
1.419,0.017479,12.066442
1.42,0.027462,11.953468
1.421,0.032453,12.066442
1.422,0.034385,12.094685
1.423,0.03519,12.235903
1.424,0.034868,12.433607
1.425,0.033902,12.518337
1.426,0.032453,12.433607
1.427,0.030682,12.405363
1.428,0.029233,12.46185
1.429,0.026496,12.37712
1.43,0.023275,12.320633
1.431,0.01925,12.179416
1.432,0.01603,12.179416
1.433,0.011361,12.094685
1.434,0.006047,11.953468
1.435,0.002022,12.009955
1.436,-0.000232,12.264146
1.437,-0.00152,12.179416
1.438,-0.000554,12.151172
1.439,0.00331,12.37712
1.44,0.00492,12.37712
1.441,0.003471,12.320633
1.442,-0.002486,12.151172
1.443,-0.007638,12.179416
1.444,-0.00941,12.094685
1.445,-0.00796,12.038198
1.446,-0.006833,12.009955
1.447,-0.007638,12.038198
1.448,-0.008765,12.433607
1.449,-0.010537,12.264146
1.45,-0.011986,12.038198
1.451,-0.013274,12.235903
1.452,-0.016333,12.348876
1.453,-0.018909,12.179416
1.454,-0.020197,12.066442
1.455,-0.020841,11.953468
1.456,-0.01907,11.72752
1.457,-0.01585,12.235903
1.458,-0.011986,12.292389
1.459,-0.008121,12.122929
1.46,-0.004418,12.37712
1.461,-0.000876,12.37712
1.462,0.003149,12.151172
1.463,0.007496,11.981711
1.464,0.011683,11.981711
1.465,0.014742,11.812251
1.466,0.01764,11.840494
1.467,0.019733,11.896981
1.468,0.019411,11.896981
1.469,0.016674,11.953468
1.47,0.012166,12.122929
1.471,0.006691,12.094685
1.472,0.001539,12.207659
1.473,-0.004096,12.151172
1.474,-0.010376,11.981711
1.475,-0.01746,11.981711
1.476,-0.025833,11.868738
1.477,-0.035493,11.840494
1.478,-0.051433,11.812251
1.479,-0.061255,11.981711
1.48,-0.065119,12.179416
1.481,-0.066729,12.009955
1.482,-0.06528,11.953468
1.483,-0.062704,11.868738
1.484,-0.059323,11.925225
1.485,-0.055136,11.953468
1.486,-0.052238,12.038198
1.487,-0.05095,12.151172
1.488,-0.05095,11.953468
1.489,-0.051111,11.896981
1.49,-0.049823,11.72752
1.491,-0.047569,11.925225
1.492,-0.043544,12.264146
1.493,-0.037747,12.320633
1.494,-0.030019,12.405363
1.495,-0.020358,12.37712
1.496,-0.010215,12.235903
1.497,-0.000393,11.953468
1.498,0.006047,11.925225
1.499,0.010073,12.038198
1.5,0.010878,12.066442
1.501,0.00959,12.179416
1.502,0.007657,12.320633
1.503,0.006852,12.405363
1.504,0.008624,12.37712
1.505,0.012005,12.490094
1.506,0.016996,12.546581
1.507,0.021504,12.46185
1.508,0.025047,12.348876
1.509,0.027301,12.292389
1.51,0.028911,12.151172
1.511,0.02875,12.038198
1.512,0.028911,12.009955
1.513,0.029394,12.038198
1.514,0.030038,12.038198
1.515,0.031165,12.264146
1.516,0.031165,12.151172
1.517,0.029555,12.264146
1.518,0.026818,12.348876
1.519,0.028106,12.37712
1.52,0.023919,12.348876
1.521,0.020538,12.490094
1.522,0.014581,12.433607
1.523,0.004598,12.235903
1.524,-0.007155,12.235903
1.525,-0.014401,12.151172
1.526,-0.018426,12.094685
1.527,-0.022129,12.094685
1.528,-0.024544,12.264146
1.529,-0.024544,12.207659
1.53,-0.025672,12.348876
1.531,-0.027121,12.292389
1.532,-0.026638,12.235903
1.533,-0.022612,12.179416
1.534,-0.018587,12.122929
1.535,-0.014401,11.529816
1.536,-0.011825,12.122929
1.537,-0.007799,12.320633
1.538,-0.003613,12.151172
1.539,0.002505,12.320633
1.54,0.00959,12.348876
1.541,0.016835,12.179416
1.542,0.023114,11.896981
1.543,0.027462,11.868738
1.544,0.030038,11.981711
1.545,0.03036,11.840494
1.546,0.029555,11.868738
1.547,0.027462,11.953468
1.548,0.025369,11.953468
1.549,0.022148,12.066442
1.55,0.018767,12.094685
1.551,0.016352,12.235903
1.552,0.012971,12.122929
1.553,0.009107,12.207659
1.554,0.003632,12.151172
1.555,-0.002969,12.122929
1.556,-0.010698,11.953468
1.557,-0.017943,11.840494
1.558,-0.033722,11.925225
1.559,-0.041611,11.981711
1.56,-0.048374,12.094685
1.561,-0.051916,12.151172
1.562,-0.053204,11.925225
1.563,-0.052399,12.038198
1.564,-0.050145,11.953468
1.565,-0.046764,11.925225
1.566,-0.041289,11.981711
1.567,-0.033561,12.038198
1.568,-0.025349,12.207659
1.569,-0.017782,12.348876
1.57,-0.01102,12.009955
1.571,-0.003613,11.953468
1.572,0.003632,11.755764
1.573,0.010395,11.72752
1.574,0.015386,11.699277
1.575,0.019089,11.953468
1.576,0.021182,12.122929
1.577,0.022309,12.348876
1.578,0.022631,12.292389
1.579,0.023597,12.490094
1.58,0.02408,12.46185
1.581,0.023436,12.631311
1.582,0.02247,12.603068
1.583,0.021504,12.433607
1.584,0.020216,12.264146
1.585,0.018767,12.348876
1.586,0.015708,12.264146
1.587,0.011522,12.009955
1.588,0.007657,12.009955
1.589,0.002666,12.066442
1.59,-0.004257,12.235903
1.591,-0.01263,12.405363
1.592,-0.021807,12.546581
1.593,-0.031146,12.659554
1.594,-0.03984,12.574824
1.595,-0.045798,12.46185
1.596,-0.048857,12.066442
1.597,-0.049179,12.066442
1.598,-0.047086,12.151172
1.599,-0.041289,12.433607
1.6,-0.02857,12.433607
1.601,-0.016172,12.46185
1.602,-0.009249,12.348876
1.603,-0.004418,12.179416
1.604,0.003149,12.038198
1.605,0.010878,12.292389
1.606,0.016191,12.179416
1.607,0.018606,12.066442
1.608,0.02086,12.151172
1.609,0.023114,12.292389
1.61,0.025208,12.37712
1.611,0.026979,12.320633
1.612,0.027784,12.405363
1.613,0.027784,12.151172
1.614,0.026979,12.207659
1.615,0.025047,12.292389
1.616,0.02247,12.207659
1.617,0.018606,12.151172
1.618,0.013293,12.009955
1.619,0.006852,12.094685
1.62,0.001539,11.812251
1.621,-0.002808,12.122929
1.622,-0.006833,12.348876
1.623,-0.010054,12.264146
1.624,-0.011986,12.179416
1.625,-0.012147,12.264146
1.626,-0.01102,12.009955
1.627,-0.009893,12.066442
1.628,-0.007799,11.868738
1.629,-0.005706,11.840494
1.63,-0.005062,11.784007
1.631,-0.006833,11.981711
1.632,-0.010537,12.066442
1.633,-0.014884,12.094685
1.634,-0.019231,12.179416
1.635,-0.022612,12.122929
1.636,-0.024544,12.038198
1.637,-0.025188,11.812251
1.638,-0.023417,11.812251
1.639,-0.025027,11.925225
1.64,-0.020036,12.066442
1.641,-0.015367,11.953468
1.642,-0.010537,12.207659
1.643,-0.00635,11.953468
1.644,-0.003935,12.038198
1.645,-0.00313,12.066442
1.646,-0.004257,11.868738
1.647,-0.007316,11.953468
1.648,-0.011181,11.953468
1.649,-0.015689,11.981711
1.65,-0.018909,11.868738
1.651,-0.020841,11.981711
1.652,-0.02068,12.151172
1.653,-0.019553,12.405363
1.654,-0.017138,11.981711
1.655,-0.014723,11.925225
1.656,-0.01102,11.72752
1.657,-0.00796,11.896981
1.658,-0.006189,11.896981
1.659,-0.005384,12.37712
1.66,-0.00635,12.46185
1.661,-0.00635,12.518337
1.662,-0.005384,12.490094
1.663,-0.002969,12.348876
1.664,-0.000876,12.207659
1.665,-0.000232,12.066442
1.666,-0.000393,12.009955
1.667,-0.001198,12.179416
1.668,-0.002969,12.151172
1.669,-0.005706,12.320633
1.67,-0.008121,12.320633
1.671,-0.010376,12.603068
1.672,-0.012147,12.574824
1.673,-0.011825,12.518337
1.674,-0.010376,12.37712
1.675,-0.008927,12.292389
1.676,-0.008443,12.151172
1.677,-0.008121,12.122929
1.678,-0.006994,12.37712
1.679,-0.004418,12.292389
1.68,-0.001842,12.264146
1.681,0.006208,12.320633
1.682,0.005564,12.603068
1.683,0.010395,12.574824
1.684,0.012327,12.405363
1.685,0.010395,12.405363
1.686,0.005725,12.292389
1.687,0.000734,12.235903
1.688,-0.001037,12.264146
1.689,-0.001198,12.235903
1.69,-0.001359,12.151172
1.691,-0.002164,12.179416
1.692,-0.003774,12.235903
1.693,-0.004418,12.433607
1.694,-0.00474,12.37712
1.695,-0.00635,12.235903
1.696,-0.009088,12.235903
1.697,-0.01102,12.292389
1.698,-0.011503,12.179416
1.699,-0.01263,12.179416
1.7,-0.015045,11.699277
1.701,-0.017138,12.009955
1.702,-0.019714,12.405363
1.703,-0.021163,12.179416
1.704,-0.021807,12.320633
1.705,-0.02068,12.37712
1.706,-0.018104,11.981711
1.707,-0.014884,11.840494
1.708,-0.011181,11.953468
1.709,-0.006189,12.038198
1.71,-0.001198,12.235903
1.711,0.003471,12.151172
1.712,0.007174,12.207659
1.713,0.010234,12.264146
1.714,0.014098,12.207659
1.715,0.01764,12.292389
1.716,0.021987,12.038198
1.717,0.025208,11.981711
1.718,0.025852,11.953468
1.719,0.025691,11.981711
1.72,0.021504,11.981711
1.721,0.02086,11.981711
1.722,0.018445,12.038198
1.723,0.015225,12.122929
1.724,0.012971,12.122929
1.725,0.009429,12.264146
1.726,0.003954,12.264146
1.727,-0.000232,12.264146
1.728,-0.004257,12.009955
1.729,-0.008443,12.066442
1.73,-0.011664,11.896981
1.731,-0.015206,12.038198
1.732,-0.019392,12.038198
1.733,-0.024383,11.953468
1.734,-0.028731,12.151172
1.735,-0.030502,12.038198
1.736,-0.029858,12.066442
1.737,-0.028248,12.603068
1.738,-0.027282,11.953468
1.739,-0.025349,12.038198
1.74,-0.021485,11.840494
1.741,-0.016655,11.72752
1.742,-0.012308,11.784007
1.743,-0.009249,12.094685
1.744,-0.006672,12.37712
1.745,-0.004096,12.46185
1.746,-0.000715,12.546581
1.747,0.002183,12.405363
1.748,0.005725,12.405363
1.749,0.009268,12.122929
1.75,0.011522,12.009955
1.751,0.01281,11.925225
1.752,0.011522,12.066442
1.753,0.009751,12.038198
1.754,0.007496,12.235903
1.755,0.007013,12.292389
1.756,0.00798,12.490094
1.757,0.010234,12.490094
1.758,0.012488,12.46185
1.759,0.013937,12.546581
1.76,0.013776,12.433607
1.761,0.012005,12.433607
1.762,0.00959,12.207659
1.763,0.007335,12.207659
1.764,0.004759,12.094685
1.765,0.002344,12.066442
1.766,9.00E-05,12.122929
1.767,-0.002486,11.953468
1.768,-0.005384,12.151172
1.769,-0.00796,12.264146
1.77,-0.008443,12.46185
1.771,-0.009249,12.405363
1.772,-0.014401,12.179416
1.773,-0.026155,12.122929
1.774,-0.034849,12.038198
1.775,-0.038713,12.094685
1.776,-0.041772,12.094685
1.777,-0.045154,12.264146
1.778,-0.044671,12.264146
1.779,-0.041128,12.179416
1.78,-0.035171,12.122929
1.781,-0.026638,12.122929
1.782,-0.017299,12.066442
1.783,-0.008927,11.925225
1.784,-0.001359,11.55806
1.785,0.005564,12.009955
1.786,0.0112,12.37712
1.787,0.016352,12.264146
1.788,0.021182,12.179416
1.789,0.026174,12.179416
1.79,0.030199,12.235903
1.791,0.032936,12.151172
1.792,0.03519,12.094685
1.793,0.035673,11.953468
1.794,0.03519,11.784007
1.795,0.032292,11.755764
1.796,0.027462,11.586303
1.797,0.021826,11.72752
1.798,0.01603,11.840494
1.799,0.011683,11.896981
1.8,0.009107,11.953468
1.801,0.007335,12.066442
1.802,0.006047,12.122929
1.803,0.005081,12.151172
1.804,0.004276,12.179416
1.805,0.00331,12.122929
1.806,0.002666,11.755764
1.807,0.002988,11.784007
1.808,0.006047,11.72752
1.809,0.0017,11.72752
1.81,0.002988,11.72752
1.811,0.007013,11.840494
1.812,0.010878,12.038198
1.813,0.016352,12.122929
1.814,0.019572,12.094685
1.815,0.021182,12.094685
1.816,0.022309,11.981711
1.817,0.021665,11.784007
1.818,0.020055,11.868738
1.819,0.01764,12.009955
1.82,0.013776,11.755764
1.821,0.009429,11.784007
1.822,0.004437,11.72752
1.823,-0.000393,11.72752
1.824,-0.004418,11.784007
1.825,-0.008927,11.812251
1.826,-0.015528,11.953468
1.827,-0.026477,11.868738
1.828,-0.040162,12.292389
1.829,-0.052077,11.840494
1.83,-0.059161,11.586303
1.831,-0.062382,11.812251
1.832,-0.062704,12.066442
1.833,-0.059806,12.348876
1.834,-0.055136,12.292389
1.835,-0.049018,12.094685
1.836,-0.04145,11.981711
1.837,-0.0334,11.953468
1.838,-0.02551,12.094685
1.839,-0.01907,12.122929
1.84,-0.015045,12.518337
1.841,-0.011986,12.264146
1.842,-0.008604,12.320633
1.843,-0.003613,12.094685
1.844,0.002666,12.038198
1.845,0.010556,11.896981
1.846,0.019089,11.925225
1.847,0.027784,11.812251
1.848,0.035673,11.925225
1.849,0.042597,11.896981
1.85,0.048554,11.953468
1.851,0.053223,12.066442
1.852,0.057409,12.066442
1.853,0.059181,12.122929
1.854,0.05902,12.122929
1.855,0.056604,12.207659
1.856,0.053867,12.151172
1.857,0.051452,12.292389
1.858,0.047105,12.320633
1.859,0.040986,12.094685
1.86,0.037444,12.320633
1.861,0.034063,12.179416
1.862,0.030843,12.37712
1.863,0.027945,12.235903
1.864,0.021987,12.066442
1.865,0.017479,12.179416
1.866,0.013615,12.009955
1.867,0.012166,11.925225
1.868,0.013132,11.981711
1.869,0.015225,11.840494
1.87,0.017157,11.953468
1.871,0.016996,11.981711
1.872,0.01603,11.981711
1.873,0.014581,12.151172
1.874,0.014098,12.066442
1.875,0.013454,12.207659
1.876,0.011522,12.179416
1.877,0.007818,12.122929
1.878,0.002666,12.066442
1.879,-0.003291,12.038198
1.88,-0.010215,12.066442
1.881,-0.020036,11.925225
1.882,-0.032112,11.55806
1.883,-0.046764,12.235903
1.884,-0.062221,12.066442
1.885,-0.077517,12.207659
1.886,-0.090719,11.868738
1.887,-0.100541,11.755764
1.888,-0.106981,11.896981
1.889,-0.109396,12.038198
1.89,-0.105693,12.179416
1.891,-0.10038,11.868738
1.892,-0.091041,11.840494
1.893,-0.075101,11.925225
1.894,-0.056102,11.981711
1.895,-0.038069,11.868738
1.896,-0.02229,11.925225
1.897,-0.007799,11.812251
1.898,0.005242,11.755764
1.899,0.016835,11.896981
1.9,0.026174,11.840494
1.901,0.034063,11.72752
1.902,0.040825,11.925225
1.903,0.045978,11.981711
1.904,0.050003,11.925225
1.905,0.052096,12.038198
1.906,0.052096,12.009955
1.907,0.051613,12.066442
1.908,0.050647,12.038198
1.909,0.04952,12.151172
1.91,0.048554,12.490094
1.911,0.04791,12.46185
1.912,0.047105,11.981711
1.913,0.045656,11.868738
1.914,0.043563,11.868738
1.915,0.040181,11.896981
1.916,0.035995,12.038198
1.917,0.032292,11.953468
1.918,0.028589,11.72752
1.919,0.025369,11.72752
1.92,0.022309,11.868738
1.921,0.019089,11.925225
1.922,0.016352,12.122929
1.923,0.014259,12.320633
1.924,0.012971,12.46185
1.925,0.011683,12.603068
1.926,0.009429,12.433607
1.927,0.007013,12.433607
1.928,0.004598,12.433607
1.929,0.001861,12.235903
1.93,-0.000554,11.896981
1.931,-0.002969,12.009955
1.932,-0.005223,11.896981
1.933,-0.006833,12.179416
1.934,-0.008121,12.179416
1.935,-0.008765,12.46185
1.936,-0.00941,12.433607
1.937,-0.010054,12.518337
1.938,-0.010859,12.46185
1.939,-0.011503,12.320633
1.94,-0.012469,12.264146
1.941,-0.013435,12.038198
1.942,-0.015689,12.122929
1.943,-0.018104,12.207659
1.944,-0.015528,12.433607
1.945,-0.02068,12.433607
1.946,-0.021807,12.320633
1.947,-0.031468,12.264146
1.948,-0.040162,12.038198
1.949,-0.044349,12.122929
1.95,-0.047247,12.151172
1.951,-0.052399,12.235903
1.952,-0.05417,12.292389
1.953,-0.054814,12.264146
1.954,-0.057068,12.066442
1.955,-0.059484,12.038198
1.956,-0.064314,12.038198
1.957,-0.07172,12.151172
1.958,-0.079127,12.038198
1.959,-0.083635,12.179416
1.96,-0.083957,12.038198
1.961,-0.078322,11.840494
1.962,-0.0685,11.72752
1.963,-0.055297,12.066442
1.964,-0.039679,12.009955
1.965,-0.019714,12.038198
1.966,0.000251,12.094685
1.967,0.018123,11.840494
1.968,0.03036,11.671033
1.969,0.044368,11.671033
1.97,0.054028,11.896981
1.971,0.05596,11.755764
1.972,0.054994,11.925225
1.973,0.054994,11.840494
1.974,0.054994,11.812251
1.975,0.053545,11.981711
1.976,0.050969,11.868738
1.977,0.049842,12.066442
1.978,0.049198,12.094685
1.979,0.049037,11.925225
1.98,0.048554,12.009955
1.981,0.047749,11.925225
1.982,0.045978,12.009955
1.983,0.042758,12.066442
1.984,0.038732,12.009955
1.985,0.034385,11.953468
1.986,0.029716,12.094685
1.987,0.025047,11.953468
1.988,0.020055,11.896981
1.989,0.016191,11.840494
1.99,0.012327,11.812251
1.991,0.009268,11.953468
1.992,0.006691,11.925225
1.993,0.004598,12.009955
1.994,0.002505,11.981711
1.995,-0.000715,12.179416
1.996,-0.004418,12.235903
1.997,-0.009088,12.574824
1.998,-0.013596,11.953468
1.999,-0.017943,12.038198
2,-0.021646,11.755764
2.001,-0.023578,11.896981
2.002,-0.022773,12.094685
2.003,-0.019553,12.37712
2.004,-0.015367,12.518337
2.005,-0.010859,12.603068
2.006,-0.006189,12.574824
2.007,-0.00152,12.292389
2.008,0.002183,12.235903
2.009,0.005081,12.009955
2.01,0.006691,12.179416
2.011,0.006691,12.094685
2.012,0.004598,12.235903
2.013,0.002988,12.179416
2.014,0.0017,12.490094
2.015,0.001217,12.603068
2.016,0.000573,12.518337
2.017,9.00E-05,12.574824
2.018,-0.001037,12.405363
2.019,-0.003774,12.37712
2.02,-0.007638,12.207659
2.021,-0.01263,12.151172
2.022,-0.017621,12.094685
2.023,-0.0239,12.066442
2.024,-0.030663,12.235903
2.025,-0.032273,12.433607
2.026,-0.039679,12.490094
2.027,-0.048213,12.179416
2.028,-0.063026,12.235903
2.029,-0.067051,12.235903
2.03,-0.067373,12.207659
2.031,-0.069466,12.179416
2.032,-0.06689,12.320633
2.033,-0.061416,12.37712
2.034,-0.052399,12.264146
2.035,-0.040484,12.151172
2.036,-0.027926,11.953468
2.037,-0.017138,11.784007
2.038,-0.00941,12.292389
2.039,-0.00313,12.264146
2.04,0.002666,12.264146
2.041,0.008463,12.292389
2.042,0.014903,12.235903
2.043,0.021987,12.264146
2.044,0.029233,12.235903
2.045,0.037444,12.235903
2.046,0.04469,12.009955
2.047,0.050325,12.009955
2.048,0.054028,11.981711
2.049,0.056765,11.925225
2.05,0.057409,11.812251
2.051,0.055316,11.812251
2.052,0.05113,11.784007
2.053,0.045495,11.755764
2.054,0.040181,11.953468
2.055,0.035834,11.840494
2.056,0.033258,11.925225
2.057,0.032292,11.925225
2.058,0.031487,11.981711
2.059,0.031809,12.151172
2.06,0.032131,12.207659
2.061,0.032775,12.235903
2.062,0.032453,12.207659
2.063,0.031165,12.038198
2.064,0.029394,12.151172
2.065,0.026657,12.207659
2.066,0.023597,12.038198
2.067,0.019089,11.953468
2.068,0.015547,12.038198
2.069,0.007174,12.122929
2.07,-0.003452,11.981711
2.071,-0.009249,12.207659
2.072,-0.016011,12.094685
2.073,-0.018909,12.151172
2.074,-0.022612,12.264146
2.075,-0.0239,12.235903
2.076,-0.024866,11.981711
2.077,-0.024383,12.009955
2.078,-0.021485,12.009955
2.079,-0.016011,12.038198
2.08,-0.009571,12.094685
2.081,-0.002647,12.038198
2.082,0.004115,12.066442
2.083,0.011361,12.094685
2.084,0.017962,12.235903
2.085,0.021987,12.179416
2.086,0.024241,12.094685
2.087,0.02408,12.490094
2.088,0.022148,12.631311
2.089,0.018123,12.038198
2.09,0.013937,11.925225
2.091,0.008624,12.094685
2.092,0.003149,11.784007
2.093,-0.002325,11.925225
2.094,-0.008443,12.009955
2.095,-0.015528,12.320633
2.096,-0.023417,12.46185
2.097,-0.030663,12.574824
2.098,-0.035171,12.490094
2.099,-0.036298,12.348876
2.1,-0.034205,12.009955
2.101,-0.030824,12.038198
2.102,-0.027282,12.292389
2.103,-0.024222,12.37712
2.104,-0.022934,12.490094
2.105,-0.022612,12.46185
2.106,-0.022934,12.546581
2.107,-0.021646,12.490094
2.108,-0.018748,12.490094
2.109,-0.016172,12.179416
2.11,-0.013757,12.122929
2.111,-0.01424,12.235903
2.112,-0.015689,12.122929
2.113,-0.018104,12.37712
2.114,-0.016172,12.518337
2.115,-0.014723,12.546581
2.116,-0.012147,12.37712
2.117,-0.013435,12.179416
2.118,-0.014401,12.292389
2.119,-0.011825,12.207659
2.12,-0.008121,12.094685
2.121,-0.005062,12.235903
2.122,-0.004901,12.179416
2.123,-0.004901,12.122929
2.124,-0.004096,12.292389
2.125,-0.003452,12.518337
2.126,-0.003613,12.433607
2.127,-0.003935,12.207659
2.128,-0.002486,12.235903
2.129,0.000573,12.179416
2.13,0.004115,12.038198
2.131,0.006691,12.151172
2.132,0.008624,11.671033
2.133,0.010556,11.840494
2.134,0.01281,12.264146
2.135,0.013293,12.264146
2.136,0.013615,12.264146
2.137,0.014742,12.320633
2.138,0.016835,12.320633
2.139,0.018928,12.264146
2.14,0.018445,12.264146
2.141,0.015547,12.179416
2.142,0.009751,11.925225
2.143,0.002344,11.868738
2.144,-0.005062,11.840494
2.145,-0.011664,11.953468
2.146,-0.016655,12.094685
2.147,-0.019553,11.953468
2.148,-0.019392,12.292389
2.149,-0.015528,12.207659
2.15,-0.010537,12.009955
2.151,-0.006028,12.122929
2.152,-0.005867,11.925225
2.153,-7.10E-05,11.925225
2.154,-0.005223,12.066442
2.155,-0.003291,12.038198
2.156,-0.003613,12.009955
2.157,-0.002808,12.235903
2.158,-0.003774,12.292389
2.159,-0.00474,12.009955
2.16,-0.003291,12.207659
2.161,0.001539,11.953468
2.162,0.007013,11.981711
2.163,0.013937,11.868738
2.164,0.019089,11.896981
2.165,0.021665,11.981711
2.166,0.021826,12.009955
2.167,0.017962,11.981711
2.168,0.012971,12.094685
2.169,0.007174,12.094685
2.17,0.001056,12.094685
2.171,-0.003774,12.546581
2.172,-0.005384,11.868738
2.173,-0.005545,11.953468
2.174,-0.002969,11.784007
2.175,-0.000554,11.925225
2.176,0.0017,12.009955
2.177,0.004437,12.348876
2.178,0.006691,12.433607
2.179,0.00798,12.603068
2.18,0.006691,12.546581
2.181,0.004115,12.546581
2.182,0.000895,12.292389
2.183,-0.00152,12.264146
2.184,-0.004096,12.122929
2.185,-0.00635,12.066442
2.186,-0.009249,12.094685
2.187,-0.013113,12.348876
2.188,-0.016977,12.574824
2.189,-0.020841,12.574824
2.19,-0.0239,12.603068
2.191,-0.024544,12.518337
2.192,-0.024705,12.37712
2.193,-0.025027,12.235903
2.194,-0.025188,12.094685
2.195,-0.025188,12.320633
2.196,-0.0239,12.405363
2.197,-0.016655,12.433607
2.198,-0.005062,12.433607
2.199,0.008302,12.518337
2.2,0.018928,12.37712
2.201,0.025369,12.235903
2.202,0.030038,12.264146
2.203,0.032775,12.235903
2.204,0.032775,12.292389
2.205,0.029716,12.066442
2.206,0.024725,12.179416
2.207,0.018606,12.179416
2.208,0.012971,12.320633
2.209,0.008141,12.292389
2.21,0.006047,12.320633
2.211,0.00492,12.433607
2.212,0.00492,12.46185
2.213,0.00492,12.433607
2.214,0.005081,12.207659
2.215,0.006208,12.151172
2.216,0.007818,12.179416
2.217,0.010878,12.038198
2.218,0.014903,12.094685
2.219,0.016674,11.614547
2.22,0.015225,11.981711
2.221,0.009751,12.264146
2.222,0.003149,12.348876
2.223,-0.003774,12.264146
2.224,-0.010537,12.235903
2.225,-0.016977,12.348876
2.226,-0.021968,12.122929
2.227,-0.025188,11.896981
2.228,-0.027443,11.840494
2.229,-0.02696,11.784007
2.23,-0.022612,12.094685
2.231,-0.01424,12.122929
2.232,-0.003935,12.348876
2.233,0.005242,12.122929
2.234,0.012327,12.179416
2.235,0.016352,12.122929
2.236,0.01764,12.122929
2.237,0.01764,11.896981
2.238,0.011522,11.896981
2.239,0.019733,11.840494
2.24,0.011683,12.038198
2.241,0.007174,11.812251
2.242,0.004276,11.953468
2.243,-0.000232,12.009955
2.244,-0.004257,12.207659
2.245,-0.009571,12.151172
2.246,-0.013596,12.038198
2.247,-0.014723,12.066442
2.248,-0.015528,12.038198
2.249,-0.016333,12.066442
2.25,-0.017138,11.755764
2.251,-0.016816,11.868738
2.252,-0.013918,11.953468
2.253,-0.009088,12.066442
2.254,-0.003452,12.151172
2.255,0.002505,12.066442
2.256,0.007818,12.518337
2.257,0.012005,12.179416
2.258,0.015064,11.868738
2.259,0.017157,11.981711
2.26,0.017318,11.64279
2.261,0.015869,11.755764
2.262,0.013615,11.868738
2.263,0.011522,12.038198
2.264,0.009268,12.207659
2.265,0.007657,12.405363
2.266,0.005725,12.603068
2.267,0.002505,12.433607
2.268,-0.000876,12.235903
2.269,-0.002808,12.207659
2.27,-0.003452,12.066442
2.271,-0.005384,11.981711
2.272,-0.006028,12.094685
2.273,-0.005706,12.320633
2.274,-0.004096,12.37712
2.275,-0.002325,12.518337
2.276,9.00E-05,12.518337
2.277,0.003149,12.518337
2.278,0.006691,12.46185
2.279,0.008946,12.348876
2.28,0.010395,12.207659
2.281,0.011039,12.264146
2.282,0.010395,12.151172
2.283,0.008624,12.094685
2.284,0.005725,12.122929
2.285,0.0017,12.433607
2.286,-0.000393,12.46185
2.287,-0.002486,12.490094
2.288,-0.004096,12.433607
2.289,-0.007638,12.320633
2.29,-0.01263,12.151172
2.291,-0.012308,12.151172
2.292,-0.008927,12.207659
2.293,-0.006672,12.264146
2.294,-0.007316,12.151172
2.295,-0.008443,12.37712
2.296,-0.008443,12.405363
2.297,-0.006672,12.348876
2.298,-0.003291,12.264146
2.299,0.001056,12.348876
2.3,0.004759,12.179416
2.301,0.007818,12.122929
2.302,0.00959,12.122929
2.303,0.0112,12.122929
2.304,0.011522,11.784007
2.305,0.010234,12.094685
2.306,0.006047,12.405363
2.307,-0.00152,12.348876
2.308,-0.011664,12.094685
2.309,-0.021968,12.433607
2.31,-0.030663,12.235903
2.311,-0.035976,12.038198
2.312,-0.036298,12.066442
2.313,-0.034205,11.896981
2.314,-0.029697,11.925225
2.315,-0.0239,12.264146
2.316,-0.017943,12.405363
2.317,-0.012308,12.122929
2.318,-0.008604,12.038198
2.319,-0.006511,12.066442
2.32,-0.006189,11.981711
2.321,-0.005062,12.038198
2.322,-0.01424,11.981711
2.323,-0.014562,11.840494
2.324,-0.014562,12.038198
2.325,-0.01263,12.207659
2.326,-0.01102,12.235903
2.327,-0.009893,12.179416
2.328,-0.009249,12.094685
2.329,-0.009732,12.009955
2.33,-0.010376,12.151172
2.331,-0.012308,12.151172
2.332,-0.013596,11.953468
2.333,-0.014723,12.151172
2.334,-0.015689,12.122929
2.335,-0.017621,12.235903
2.336,-0.019714,12.659554
2.337,-0.021002,11.896981
2.338,-0.018748,12.094685
2.339,-0.014401,11.868738
2.34,-0.009088,11.925225
2.341,-0.004257,12.122929
2.342,-0.001198,12.46185
2.343,0.000251,12.716041
2.344,0.000573,12.857259
2.345,-7.10E-05,12.687798
2.346,-0.001359,12.518337
2.347,-0.002164,12.348876
2.348,-0.001681,12.151172
2.349,-0.000554,12.094685
2.35,0.001217,12.348876
2.351,0.002505,12.490094
2.352,0.002827,12.490094
2.353,0.003793,12.631311
2.354,0.006852,12.631311
2.355,0.011683,12.772528
2.356,0.016352,12.518337
2.357,0.021343,12.631311
2.358,0.024241,12.631311
2.359,0.02553,12.405363
2.36,0.02553,12.37712
2.361,0.024402,12.292389
2.362,0.022792,12.235903
2.363,0.02086,12.320633
2.364,0.019411,12.46185
2.365,0.017479,12.574824
2.366,0.015064,12.687798
2.367,0.015708,12.659554
2.368,0.01281,12.574824
2.369,0.009912,12.631311
2.37,0.001539,12.518337
2.371,-0.00941,12.405363
2.372,-0.014401,12.37712
2.373,-0.015206,12.179416
2.374,-0.016816,12.235903
2.375,-0.016816,12.490094
2.376,-0.011342,12.574824
2.377,-0.003452,12.46185
2.378,0.002666,12.490094
2.379,0.007174,12.37712
2.38,0.010234,12.292389
2.381,0.011683,12.292389
2.382,0.010878,12.348876
2.383,0.008785,11.981711
2.384,0.005242,12.235903
2.385,0.001539,12.518337
2.386,-0.002808,12.518337
2.387,-0.006672,12.546581
2.388,-0.008927,12.546581
2.389,-0.010376,12.490094
2.39,-0.010859,12.151172
2.391,-0.012308,12.151172
2.392,-0.013757,12.066442
2.393,-0.015689,12.122929
2.394,-0.01746,12.292389
2.395,-0.019875,12.320633
2.396,-0.02229,12.264146
2.397,-0.024061,12.46185
2.398,-0.025349,12.264146
2.399,-0.025994,12.235903
2.4,-0.021163,12.122929
2.401,-0.026155,12.179416
2.402,-0.021324,12.292389
2.403,-0.015689,12.405363
2.404,-0.007799,12.490094
2.405,0.001056,12.264146
2.406,0.010717,12.348876
2.407,0.019733,12.320633
2.408,0.02553,12.179416
2.409,0.027784,12.292389
2.41,0.025691,12.094685
2.411,0.021021,12.009955
2.412,0.016674,12.207659
2.413,0.012005,12.179416
2.414,0.008141,12.009955
2.415,0.006208,12.094685
2.416,0.004759,12.320633
2.417,0.002666,12.320633
2.418,-0.000715,12.235903
2.419,-0.006672,12.716041
2.42,-0.012791,12.094685
2.421,-0.018265,12.066442
2.422,-0.021807,11.981711
2.423,-0.024061,12.122929
2.424,-0.025349,12.518337
2.425,-0.02551,12.687798
2.426,-0.025833,12.659554
2.427,-0.026638,12.687798
2.428,-0.026477,12.490094
2.429,-0.025027,12.207659
2.43,-0.02229,12.179416
2.431,-0.017621,12.37712
2.432,-0.011825,12.405363
2.433,-0.005062,12.687798
2.434,0.001539,12.744285
2.435,0.008785,12.800772
2.436,0.014259,12.716041
2.437,0.017801,12.546581
2.438,0.01925,12.405363
2.439,0.019733,12.292389
2.44,0.020216,12.292389
2.441,0.021182,12.264146
2.442,0.022631,12.37712
2.443,0.025691,12.292389
2.444,0.029716,12.490094
2.445,0.032936,12.46185
2.446,0.037766,12.574824
2.447,0.040664,12.716041
2.448,0.039376,12.659554
2.449,0.037927,12.631311
2.45,0.034707,12.546581
2.451,0.027301,12.574824
2.452,0.018284,12.348876
2.453,0.011683,12.264146
2.454,0.008785,12.320633
2.455,0.006691,12.292389
2.456,0.003793,12.264146
2.457,-7.10E-05,12.433607
2.458,-0.003935,12.235903
2.459,-0.006511,12.37712
2.46,-0.010054,12.46185
2.461,-0.014884,12.46185
2.462,-0.021807,12.433607
2.463,-0.027765,12.320633
2.464,-0.033239,12.151172
2.465,-0.036459,11.784007
2.466,-0.03662,12.405363
2.467,-0.035493,12.37712
2.468,-0.033239,12.490094
2.469,-0.030502,12.292389
2.47,-0.026638,12.009955
2.471,-0.020841,12.009955
2.472,-0.013918,12.009955
2.473,-0.006994,12.122929
2.474,-0.000554,12.264146
2.475,0.005242,12.320633
2.476,0.009751,12.235903
2.477,0.01281,12.235903
2.478,0.015386,12.179416
2.479,0.017962,12.207659
2.48,0.019894,11.953468
2.481,0.018445,12.009955
2.482,0.024241,11.868738
2.483,0.01925,11.840494
2.484,0.016352,11.981711
2.485,0.013132,12.094685
2.486,0.007657,12.122929
2.487,0.00331,12.207659
2.488,-0.002164,12.066442
2.489,-0.006833,12.094685
2.49,-0.010054,12.151172
2.491,-0.013113,12.094685
2.492,-0.016172,12.094685
2.493,-0.021646,11.840494
2.494,-0.025994,12.066442
2.495,-0.029053,11.925225
2.496,-0.029858,12.320633
2.497,-0.028409,12.207659
2.498,-0.025994,12.631311
2.499,-0.021807,12.038198
2.5,-0.018104,11.953468
2.501,-0.01424,11.784007
2.502,-0.010054,11.953468
2.503,-0.005867,11.981711
2.504,-0.001359,12.348876
2.505,0.002827,12.490094
2.506,0.006369,12.603068
2.507,0.010556,12.46185
2.508,0.013776,12.574824
2.509,0.017157,12.490094
2.51,0.019733,12.320633
2.511,0.020699,12.207659
2.512,0.020699,12.122929
2.513,0.019733,12.038198
2.514,0.018606,12.122929
2.515,0.016996,12.348876
2.516,0.015386,12.37712
2.517,0.013132,12.518337
2.518,0.010717,12.631311
2.519,0.010234,12.546581
2.52,0.00959,12.348876
2.521,0.007818,12.292389
2.522,0.004759,12.207659
2.523,-7.10E-05,12.235903
2.524,-0.005384,12.320633
2.525,-0.010215,12.207659
2.526,-0.014723,12.292389
2.527,-0.020358,12.490094
2.528,-0.021485,12.433607
2.529,-0.024383,12.490094
2.53,-0.036298,12.348876
2.531,-0.044671,12.122929
2.532,-0.045315,12.122929
2.533,-0.046925,12.179416
2.534,-0.047569,12.46185
2.535,-0.044832,12.37712
2.536,-0.042094,12.37712
2.537,-0.036137,12.151172
2.538,-0.026477,12.094685
2.539,-0.015367,11.925225
2.54,-0.002969,11.840494
2.541,0.008463,12.320633
2.542,0.017962,12.405363
2.543,0.02553,12.292389
2.544,0.030682,12.235903
2.545,0.032614,12.37712
2.546,0.031326,12.348876
2.547,0.026174,12.151172
2.548,0.019733,12.066442
2.549,0.014259,11.953468
2.55,0.009751,11.896981
2.551,0.00653,11.784007
2.552,0.00492,11.981711
2.553,0.00492,12.094685
2.554,0.006208,12.151172
2.555,0.008302,12.292389
2.556,0.010395,12.207659
2.557,0.011039,12.179416
2.558,0.012005,12.207659
2.559,0.012327,12.151172
2.56,0.012649,11.896981
2.561,0.010234,11.925225
2.562,0.010717,11.925225
2.563,0.002988,11.981711
2.564,9.00E-05,12.066442
2.565,-0.003452,12.009955
2.566,-0.004418,12.179416
2.567,-0.003774,12.207659
2.568,-0.004579,12.151172
2.569,-0.005223,12.122929
2.57,-0.007155,12.122929
2.571,-0.010215,12.151172
2.572,-0.013435,11.981711
2.573,-0.016011,11.981711
2.574,-0.016494,11.840494
2.575,-0.015689,11.925225
2.576,-0.014401,12.038198
2.577,-0.012952,12.151172
2.578,-0.010859,12.009955
2.579,-0.010054,12.490094
2.58,-0.010215,12.009955
2.581,-0.010537,11.840494
2.582,-0.011181,11.925225
2.583,-0.012469,11.755764
2.584,-0.013596,11.812251
2.585,-0.013918,12.038198
2.586,-0.014079,12.433607
2.587,-0.014884,12.546581
2.588,-0.015528,12.574824
2.589,-0.016816,12.433607
2.59,-0.018104,12.151172
2.591,-0.019392,12.009955
2.592,-0.019875,12.038198
2.593,-0.018748,12.151172
2.594,-0.016816,12.490094
2.595,-0.014884,12.659554
2.596,-0.013435,12.348876
2.597,-0.010859,12.320633
2.598,-0.008121,12.292389
2.599,-0.005545,12.179416
2.6,-0.005062,12.009955
2.601,-0.005545,12.038198
2.602,-0.006994,12.094685
2.603,-0.007477,12.348876
2.604,-0.003291,12.292389
2.605,0.001056,12.292389
2.606,0.002344,12.320633
2.607,-0.001842,12.235903
2.608,-0.00474,12.094685
2.609,-0.003935,11.896981
2.61,-0.002647,11.981711
2.611,-0.004257,12.038198
2.612,-0.00796,12.179416
2.613,-0.009893,12.151172
2.614,-0.011825,12.235903
2.615,-0.01424,12.235903
2.616,-0.016011,12.122929
2.617,-0.018104,12.066442
2.618,-0.022612,11.953468
2.619,-0.027926,11.812251
2.62,-0.033078,12.320633
2.621,-0.03662,12.038198
2.622,-0.037425,12.122929
2.623,-0.036459,12.009955
2.624,-0.034527,11.812251
2.625,-0.030663,11.671033
2.626,-0.024222,11.812251
2.627,-0.016333,12.066442
2.628,-0.00941,11.868738
2.629,-0.004257,11.925225
2.63,0.000251,12.038198
2.631,0.004115,11.981711
2.632,0.006369,11.896981
2.633,0.001378,11.840494
2.634,0.00798,11.586303
2.635,0.001056,11.72752
2.636,0.000573,11.925225
2.637,-0.001842,12.009955
2.638,-0.001842,12.038198
2.639,-0.001681,12.122929
2.64,-0.000876,11.953468
2.641,0.001539,11.953468
2.642,0.004437,11.896981
2.643,0.006208,11.755764
2.644,0.005725,11.699277
2.645,0.002988,11.64279
2.646,-0.002003,11.840494
2.647,-0.006994,11.755764
2.648,-0.012147,11.896981
2.649,-0.016494,11.812251
2.65,-0.021485,12.320633
2.651,-0.028087,11.614547
2.652,-0.035493,11.671033
2.653,-0.042255,11.529816
2.654,-0.048374,11.812251
2.655,-0.051594,12.207659
2.656,-0.051111,12.348876
2.657,-0.04773,12.264146
2.658,-0.042255,12.094685
2.659,-0.035815,11.812251
2.66,-0.028409,11.784007
2.661,-0.019231,11.981711
2.662,-0.009732,12.122929
2.663,-0.000554,12.37712
2.664,0.006047,12.433607
2.665,0.012327,12.235903
2.666,0.017157,12.264146
2.667,0.020377,12.038198
2.668,0.021987,11.925225
2.669,0.02247,12.009955
2.67,0.022631,11.868738
2.671,0.021343,12.094685
2.672,0.019089,11.981711
2.673,0.01603,12.038198
2.674,0.01603,12.179416
2.675,0.014742,12.264146
2.676,0.013293,12.264146
2.677,0.005403,12.179416
2.678,-0.001681,12.066442
2.679,-0.001198,11.953468
2.68,0.000251,11.896981
2.681,-0.000232,12.009955
2.682,-7.10E-05,11.868738
2.683,0.002666,12.207659
2.684,0.003471,12.207659
2.685,0.001056,12.066442
2.686,-0.002486,12.066442
2.687,-0.006511,12.009955
2.688,-0.010698,11.868738
2.689,-0.013435,11.445086
2.69,-0.013596,12.122929
2.691,-0.013113,12.235903
2.692,-0.012952,11.981711
2.693,-0.012469,12.038198
2.694,-0.010859,12.038198
2.695,-0.006511,11.784007
2.696,-0.000232,11.72752
2.697,0.006369,11.64279
2.698,0.011361,11.868738
2.699,0.015064,11.812251
2.7,0.017157,12.066442
2.701,0.019089,12.066442
2.702,0.020055,11.925225
2.703,0.019572,11.953468
2.704,0.017801,11.896981
2.705,0.017157,11.755764
2.706,0.013615,11.784007
2.707,0.013293,11.755764
2.708,0.007657,11.755764
2.709,0.006852,11.812251
2.71,0.007013,12.094685
2.711,0.006852,11.981711
2.712,0.004759,11.953468
2.713,0.002505,11.953468
2.714,-0.000715,11.896981
2.715,-0.004579,11.868738
2.716,-0.008121,11.699277
2.717,-0.011503,11.784007
2.718,-0.013274,11.840494
2.719,-0.015528,11.981711
2.72,-0.017943,11.812251
2.721,-0.018587,11.925225
2.722,-0.017138,12.292389
2.723,-0.014401,11.840494
2.724,-0.011986,11.784007
2.725,-0.011503,11.755764
2.726,-0.011664,11.840494
2.727,-0.012147,12.151172
2.728,-0.011664,12.320633
2.729,-0.011503,12.518337
2.73,-0.010698,12.46185
2.731,-0.010698,12.094685
2.732,-0.010054,12.038198
2.733,-0.008765,11.840494
2.734,-0.008121,11.981711
2.735,-0.006511,12.122929
2.736,-0.004418,12.264146
2.737,-0.001198,12.37712
2.738,0.001539,12.348876
2.739,0.002988,12.37712
2.74,0.003632,12.320633
2.741,0.003632,12.094685
2.742,0.004598,11.953468
2.743,0.005564,11.981711
2.744,0.006691,12.009955
2.745,0.007335,12.207659
2.746,0.006691,12.292389
2.747,0.006852,12.433607
2.748,0.005725,12.320633
2.749,0.000573,12.292389
2.75,-0.013757,12.207659
2.751,-0.021968,11.953468
2.752,-0.024544,12.094685
2.753,-0.028248,12.235903
2.754,-0.030019,12.179416
2.755,-0.027765,12.179416
2.756,-0.0239,12.179416
2.757,-0.019553,12.320633
2.758,-0.013757,11.953468
2.759,-0.008282,12.151172
2.76,-0.003613,11.671033
2.761,0.000734,12.151172
2.762,0.004759,12.264146
2.763,0.008463,12.207659
2.764,0.011844,12.264146
2.765,0.014903,12.433607
2.766,0.018123,12.179416
2.767,0.021504,11.868738
2.768,0.023114,11.868738
2.769,0.023597,11.784007
2.77,0.022631,11.868738
2.771,0.021504,11.925225
2.772,0.01925,12.122929
2.773,0.016191,12.094685
2.774,0.012166,12.235903
2.775,0.008463,12.207659
2.776,0.004437,12.122929
2.777,0.000895,12.066442
2.778,-0.008443,11.925225
2.779,-0.007477,11.868738
2.78,-0.011986,11.840494
2.781,-0.01263,12.122929
2.782,-0.011181,12.151172
2.783,-0.010698,12.122929
2.784,-0.009571,12.179416
2.785,-0.009571,12.038198
2.786,-0.009732,11.925225
2.787,-0.009571,11.953468
2.788,-0.008604,12.009955
2.789,-0.00796,12.009955
2.79,-0.007638,12.066442
2.791,-0.008443,12.066442
2.792,-0.00941,12.066442
2.793,-0.009893,12.518337
2.794,-0.009732,11.868738
2.795,-0.008927,11.981711
2.796,-0.00796,11.840494
2.797,-0.006028,11.840494
2.798,-0.004096,12.094685
2.799,-0.00313,12.235903
2.8,-0.002486,12.659554
2.801,-0.001037,12.574824
2.802,0.000412,12.546581
2.803,0.001056,12.348876
2.804,0.000734,12.264146
2.805,0.000895,11.953468
2.806,0.001378,12.038198
2.807,0.000895,12.038198
2.808,-0.001037,12.151172
2.809,-0.005384,12.37712
2.81,-0.010698,12.518337
2.811,-0.016172,12.46185
2.812,-0.021163,12.490094
2.813,-0.024705,12.37712
2.814,-0.025833,12.179416
2.815,-0.022451,12.151172
2.816,-0.01585,12.235903
2.817,-0.008282,12.235903
2.818,0.002827,12.348876
2.819,0.009429,12.320633
2.82,0.01442,12.348876
2.821,0.016674,12.264146
2.822,0.01442,12.348876
2.823,0.013293,12.235903
2.824,0.015869,12.207659
2.825,0.018445,12.235903
2.826,0.020216,12.122929
2.827,0.021021,12.207659
2.828,0.019572,12.264146
2.829,0.019089,12.122929
2.83,0.018928,12.348876
2.831,0.018767,12.264146
2.832,0.01764,12.292389
2.833,0.014259,12.405363
2.834,0.009751,12.348876
2.835,0.004759,12.320633
2.836,0.001378,12.264146
2.837,-0.000715,12.122929
2.838,0.000412,12.066442
2.839,0.002988,11.72752
2.84,0.00653,11.812251
2.841,0.00798,12.320633
2.842,0.008141,12.207659
2.843,0.00798,12.207659
2.844,0.008302,12.264146
2.845,0.010073,12.264146
2.846,0.010556,12.292389
2.847,0.010395,12.066442
2.848,0.009912,11.925225
2.849,0.009107,11.896981
2.85,0.00959,11.812251
2.851,0.00959,11.72752
2.852,0.009912,11.925225
2.853,0.00959,12.179416
2.854,0.008141,12.264146
2.855,0.006047,12.179416
2.856,0.003793,12.179416
2.857,0.002666,12.122929
2.858,0.000734,12.122929
2.859,-0.001842,12.009955
2.86,-0.004096,11.896981
2.861,-0.011986,11.868738
2.862,-0.014079,12.122929
2.863,-0.01585,12.066442
2.864,-0.013918,12.207659
2.865,-0.011503,12.235903
2.866,-0.007316,12.122929
2.867,-0.004096,12.066442
2.868,-0.000232,12.094685
2.869,0.003149,11.925225
2.87,0.004598,11.953468
2.871,0.003954,11.953468
2.872,0.001378,12.094685
2.873,-0.002164,12.066442
2.874,-0.00474,12.179416
2.875,-0.007477,12.151172
2.876,-0.009893,12.37712
2.877,-0.010537,11.953468
2.878,-0.009088,11.981711
2.879,-0.006028,11.868738
2.88,-0.003291,11.784007
2.881,-0.001842,12.009955
2.882,-0.002003,12.37712
2.883,-0.004257,12.46185
2.884,-0.007316,12.687798
2.885,-0.009732,12.433607
2.886,-0.012469,12.37712
2.887,-0.014401,12.094685
2.888,-0.016977,12.179416
2.889,-0.019231,12.235903
2.89,-0.020841,12.518337
2.891,-0.021968,12.518337
2.892,-0.022451,12.518337
2.893,-0.02229,12.46185
2.894,-0.021002,12.320633
2.895,-0.018104,12.094685
2.896,-0.013274,12.122929
2.897,-0.006994,12.207659
2.898,-7.10E-05,12.348876
2.899,0.007818,12.46185
2.9,0.017318,12.405363
2.901,0.025691,12.546581
2.902,0.029555,12.405363
2.903,0.026657,12.46185
2.904,0.019089,12.179416
2.905,0.014581,12.151172
2.906,0.013293,12.122929
2.907,0.014259,12.235903
2.908,0.01442,12.264146
2.909,0.012005,12.179416
2.91,0.010073,12.235903
2.911,0.010878,12.348876
2.912,0.01281,12.518337
2.913,0.015386,12.320633
2.914,0.017157,12.292389
2.915,0.020055,12.235903
2.916,0.023114,12.264146
2.917,0.02553,12.207659
2.918,0.027462,12.038198
2.919,0.028428,12.122929
2.92,0.028428,11.64279
2.921,0.027945,11.981711
2.922,0.026013,12.46185
2.923,0.021504,12.37712
2.924,0.015547,12.292389
2.925,0.009912,12.292389
2.926,0.005081,12.292389
2.927,0.000412,12.151172
2.928,-0.004579,11.840494
2.929,-0.00796,12.009955
2.93,-0.011342,11.925225
2.931,-0.013918,12.094685
2.932,-0.016816,12.264146
2.933,-0.02068,12.179416
2.934,-0.025672,12.207659
2.935,-0.029375,12.094685
2.936,-0.031629,12.066442
2.937,-0.029375,11.925225
2.938,-0.036459,11.925225
2.939,-0.034205,12.094685
2.94,-0.029858,12.122929
2.941,-0.024866,12.235903
2.942,-0.018265,12.264146
2.943,-0.012147,12.264146
2.944,-0.006028,12.122929
2.945,-0.001198,11.953468
2.946,0.003149,12.066442
2.947,0.006691,12.151172
2.948,0.009107,12.151172
2.949,0.010717,12.179416
2.95,0.011683,12.207659
2.951,0.010717,12.151172
2.952,0.009912,12.687798
2.953,0.009429,12.179416
2.954,0.009912,12.122929
2.955,0.010717,11.981711
2.956,0.011522,11.755764
2.957,0.011844,11.925225
2.958,0.012005,12.066442
2.959,0.011522,12.433607
2.96,0.010556,12.631311
2.961,0.009751,12.716041
2.962,0.008785,12.716041
2.963,0.008141,12.687798
2.964,0.00653,12.433607
2.965,0.004115,12.320633
2.966,9.00E-05,12.235903
2.967,-0.004418,12.207659
2.968,-0.008604,12.405363
2.969,-0.01102,12.405363
2.97,-0.012952,12.772528
2.971,-0.014079,12.659554
2.972,-0.014562,12.631311
2.973,-0.014723,12.546581
2.974,-0.015206,12.37712
2.975,-0.016977,12.348876
2.976,-0.019231,12.37712
2.977,-0.021646,12.405363
2.978,-0.023095,12.631311
2.979,-0.018104,12.687798
2.98,-0.01424,12.716041
2.981,-0.014884,12.574824
2.982,-0.016816,12.37712
2.983,-0.012308,12.235903
2.984,-0.004579,12.264146
2.985,0.001217,12.37712
2.986,0.007818,12.518337
2.987,0.014581,12.490094
2.988,0.020055,12.46185
2.989,0.023275,12.574824
2.99,0.022953,12.490094
2.991,0.021665,12.518337
2.992,0.01925,12.490094
2.993,0.016835,12.37712
2.994,0.012005,12.46185
2.995,0.006047,12.207659
2.996,-0.000876,11.925225
2.997,-0.006994,12.37712
2.998,-0.010376,12.659554
2.999,-0.010859,12.574824
3,-0.008443,12.546581
3.001,-0.005384,12.518337
3.002,-0.002164,12.37712
3.003,0.000895,12.207659
3.004,0.003954,12.179416
3.005,0.006691,12.151172
3.006,0.008141,12.151172
3.007,0.009268,12.320633
3.008,0.010073,12.320633
3.009,0.010395,12.490094
3.01,0.010717,12.433607
3.011,0.00959,12.433607
3.012,0.007657,12.405363
3.013,0.005242,12.37712
3.014,0.002505,12.179416
3.015,-0.000232,12.151172
3.016,-0.008121,12.235903
3.017,-0.013113,12.264146
3.018,-0.019231,12.37712
3.019,-0.023739,12.433607
3.02,-0.026477,12.46185
3.021,-0.027765,12.405363
3.022,-0.027282,12.235903
3.023,-0.025672,12.179416
3.024,-0.0239,12.179416
3.025,-0.021807,12.320633
3.026,-0.018426,12.292389
3.027,-0.011986,12.46185
3.028,-0.002647,12.37712
3.029,0.007818,12.264146
3.03,0.016674,12.829015
3.031,0.024241,12.490094
3.032,0.030199,12.207659
3.033,0.035673,12.207659
3.034,0.039859,12.038198
3.035,0.041309,12.207659
3.036,0.041309,11.925225
3.037,0.039859,12.179416
3.038,0.037283,12.094685
3.039,0.034546,12.264146
3.04,0.032453,12.37712
3.041,0.030521,12.659554
3.042,0.029072,12.631311
3.043,0.028428,12.857259
3.044,0.027301,12.857259
3.045,0.02553,12.829015
3.046,0.023275,12.772528
3.047,0.020699,12.800772
3.048,0.017801,12.716041
3.049,0.014259,12.46185
3.05,0.009751,12.207659
3.051,0.003954,12.292389
3.052,-0.002486,12.348876
3.053,-0.008282,12.546581
3.054,-0.013596,12.603068
3.055,-0.016333,12.687798
3.056,-0.017299,12.800772
3.057,-0.017138,12.772528
3.058,-0.017138,12.744285
3.059,-0.01746,12.574824
3.06,-0.018748,12.490094
3.061,-0.022129,12.574824
3.062,-0.028087,12.603068
3.063,-0.028248,12.631311
3.064,-0.036781,12.829015
3.065,-0.043061,12.772528
3.066,-0.054009,12.574824
3.067,-0.053204,12.433607
3.068,-0.047569,12.546581
3.069,-0.041772,12.659554
3.07,-0.032112,12.744285
3.071,-0.021968,12.659554
3.072,-0.013757,12.490094
3.073,-0.003613,12.546581
3.074,0.00653,12.46185
3.075,0.015708,12.264146
3.076,0.02408,12.122929
3.077,0.03197,12.603068
3.078,0.037283,12.687798
3.079,0.038571,12.631311
3.08,0.037766,12.490094
3.081,0.036639,12.631311
3.082,0.035995,12.687798
3.083,0.03519,12.687798
3.084,0.033741,12.518337
3.085,0.031809,12.405363
3.086,0.029716,12.235903
3.087,0.027945,12.264146
3.088,0.02714,12.179416
3.089,0.026979,12.179416
3.09,0.027462,12.207659
3.091,0.028589,12.264146
3.092,0.028911,12.405363
3.093,0.029072,12.490094
3.094,0.02875,12.603068
3.095,0.027784,12.433607
3.096,0.026496,12.46185
3.097,0.023919,12.433607
3.098,0.020216,12.405363
3.099,0.015225,12.348876
3.1,0.002344,12.122929
3.101,0.001217,12.37712
3.102,-0.011342,12.348876
3.103,-0.017138,12.37712
3.104,-0.022612,12.490094
3.105,-0.024544,12.405363
3.106,-0.025349,12.518337
3.107,-0.024061,12.405363
3.108,-0.021807,12.405363
3.109,-0.017299,12.235903
3.11,-0.01102,12.37712
3.111,-0.004579,12.292389
3.112,-0.000232,12.292389
3.113,0.000895,12.37712
3.114,0.000573,12.405363
3.115,-0.002486,12.433607
3.116,-0.006994,12.37712
3.117,-0.01263,12.885502
3.118,-0.018265,12.151172
3.119,-0.024222,12.151172
3.12,-0.029375,12.094685
3.121,-0.033722,12.207659
3.122,-0.036459,12.603068
3.123,-0.036459,12.829015
3.124,-0.034688,12.885502
3.125,-0.031468,12.744285
3.126,-0.026316,12.518337
3.127,-0.018909,12.405363
3.128,-0.011181,12.433607
3.129,-0.004418,12.46185
3.13,0.000573,12.574824
3.131,0.004276,12.631311
3.132,0.006852,12.857259
3.133,0.008141,12.885502
3.134,0.008785,12.941989
3.135,0.008141,12.716041
3.136,0.006369,12.659554
3.137,0.002666,12.574824
3.138,-0.00152,12.490094
3.139,-0.005867,12.46185
3.14,-0.008121,12.37712
3.141,-0.010215,12.518337
3.142,-0.010537,12.744285
3.143,-0.002486,12.631311
3.144,0.001539,12.857259
3.145,0.012488,12.659554
3.146,0.020699,12.687798
3.147,0.024725,12.659554
3.148,0.029555,12.574824
3.149,0.034385,12.546581
3.15,0.038732,12.546581
3.151,0.040986,12.490094
3.152,0.041309,12.46185
3.153,0.039376,12.46185
3.154,0.034707,12.631311
3.155,0.029394,12.518337
3.156,0.023758,12.546581
3.157,0.020699,12.659554
3.158,0.019733,12.716041
3.159,0.019894,12.857259
3.16,0.020538,12.716041
3.161,0.020216,12.490094
3.162,0.019894,12.574824
3.163,0.020538,12.46185
3.164,0.020216,12.603068
3.165,0.020377,12.490094
3.166,0.020699,12.264146
3.167,0.020538,12.038198
3.168,0.019894,12.46185
3.169,0.020055,12.800772
3.17,0.018445,12.716041
3.171,0.016352,12.603068
3.172,0.014581,12.631311
3.173,0.013132,12.829015
3.174,0.012327,12.603068
3.175,0.011844,12.546581
3.176,0.010717,12.546581
3.177,0.008946,12.292389
3.178,0.007174,12.207659
3.179,0.006208,12.405363
3.18,0.006047,12.490094
3.181,0.005564,12.518337
3.182,0.00492,12.574824
3.183,0.006369,12.574824
3.184,0.009107,12.687798
3.185,0.012488,12.603068
3.186,0.015225,12.574824
3.187,0.016674,12.603068
3.188,0.017318,12.320633
3.189,0.015547,12.292389
3.19,0.015386,12.235903
3.191,0.010717,12.490094
3.192,0.011361,12.292389
3.193,0.009429,12.490094
3.194,0.008624,12.546581
3.195,0.008302,12.546581
3.196,0.007496,12.518337
3.197,0.008141,12.716041
3.198,0.00798,12.546581
3.199,0.006852,12.546581
3.2,0.003793,12.518337
3.201,0.000734,12.405363
3.202,-0.003935,12.37712
3.203,-0.009893,12.348876
3.204,-0.016655,12.433607
3.205,-0.025027,12.348876
3.206,-0.032112,12.574824
3.207,-0.037908,12.574824
3.208,-0.042094,12.941989
3.209,-0.045637,12.320633
3.21,-0.048535,12.320633
3.211,-0.049823,12.292389
3.212,-0.047891,12.772528
3.213,-0.044993,13.026719
3.214,-0.040645,12.998476
3.215,-0.035976,12.857259
3.216,-0.031468,12.659554
3.217,-0.02696,12.546581
3.218,-0.023256,12.603068
3.219,-0.019392,12.603068
3.22,-0.015689,12.687798
3.221,-0.013435,12.857259
3.222,-0.011181,12.941989
3.223,-0.008765,13.054963
3.224,-0.005062,13.026719
3.225,-0.000232,12.857259
3.226,0.004437,12.716041
3.227,0.007013,12.574824
3.228,0.008141,12.546581
3.229,0.008302,12.687798
3.23,0.007657,12.716041
3.231,0.007657,12.800772
3.232,0.008946,12.885502
3.233,0.014742,12.941989
3.234,0.020377,12.941989
3.235,0.026335,12.913746
3.236,0.030843,12.829015
3.237,0.032131,12.913746
3.238,0.030682,12.716041
3.239,0.029072,12.857259
3.24,0.02714,12.687798
3.241,0.02553,12.603068
3.242,0.024241,12.490094
3.243,0.021826,12.490094
3.244,0.017962,12.546581
3.245,0.01281,12.885502
3.246,0.007013,12.744285
3.247,0.002344,12.687798
3.248,-0.000876,12.885502
3.249,-0.003452,12.800772
3.25,-0.005384,12.687798
3.251,-0.007477,12.772528
3.252,-0.009893,12.574824
3.253,-0.011503,12.37712
3.254,-0.012147,12.518337
3.255,-0.011986,12.744285
3.256,-0.01102,12.829015
3.257,-0.009088,12.687798
3.258,-0.006189,12.716041
3.259,-0.002003,12.800772
3.26,0.001861,12.574824
3.261,0.005081,12.433607
3.262,0.006852,12.292389
3.263,0.007335,12.405363
3.264,0.006852,12.433607
3.265,0.006852,12.490094
3.266,0.00798,12.631311
3.267,0.010556,12.772528
3.268,0.013776,12.800772
3.269,0.01603,12.603068
3.27,0.017318,12.829015
3.271,0.017479,12.603068
3.272,0.01764,12.490094
3.273,0.012649,12.292389
3.274,0.015386,12.320633
3.275,0.003471,12.37712
3.276,-0.001198,12.433607
3.277,-0.007316,12.687798
3.278,-0.010537,12.518337
3.279,-0.013596,12.716041
3.28,-0.013918,12.716041
3.281,-0.013113,12.659554
3.282,-0.011825,12.518337
3.283,-0.010054,12.518337
3.284,-0.009893,12.433607
3.285,-0.010054,12.46185
3.286,-0.010376,12.518337
3.287,-0.012147,12.603068
3.288,-0.014562,12.772528
3.289,-0.019714,12.631311
3.29,-0.025994,12.970232
3.291,-0.033722,12.348876
3.292,-0.040162,12.320633
3.293,-0.046442,12.37712
3.294,-0.04934,12.631311
3.295,-0.049501,12.941989
3.296,-0.047086,13.139693
3.297,-0.043061,12.970232
3.298,-0.036781,12.631311
3.299,-0.029214,12.603068
3.3,-0.021646,12.687798
3.301,-0.015367,12.744285
3.302,-0.010537,12.970232
3.303,-0.006028,13.167937
3.304,-0.00152,13.026719
3.305,0.003149,12.998476
3.306,0.007496,12.885502
3.307,0.010073,12.800772
3.308,0.011039,12.631311
3.309,0.010395,12.603068
3.31,0.009751,12.659554
3.311,0.008463,12.857259
3.312,0.006208,12.800772
3.313,0.009912,12.829015
3.314,0.006691,13.026719
3.315,0.008463,12.857259
3.316,0.010717,12.913746
3.317,0.008302,12.857259
3.318,0.007013,12.744285
3.319,0.009912,12.603068
3.32,0.01442,12.659554
3.321,0.01925,12.716041
3.322,0.021504,12.744285
3.323,0.022148,12.800772
3.324,0.021021,12.857259
3.325,0.018123,12.744285
3.326,0.015064,12.913746
3.327,0.01281,12.800772
3.328,0.012488,12.744285
3.329,0.013937,12.631311
3.33,0.014903,12.716041
3.331,0.014742,12.659554
3.332,0.012971,12.490094
3.333,0.00959,12.207659
3.334,0.005564,12.546581
3.335,0.001378,12.913746
3.336,-0.003452,12.744285
3.337,-0.007799,12.885502
3.338,-0.012147,12.857259
3.339,-0.015528,12.716041
3.34,-0.017782,12.405363
3.341,-0.019553,12.37712
3.342,-0.020841,12.292389
3.343,-0.020519,12.687798
3.344,-0.018265,12.800772
3.345,-0.015045,12.716041
3.346,-0.011181,12.574824
3.347,-0.008604,12.659554
3.348,-0.006833,12.631311
3.349,-0.011503,12.518337
3.35,-0.008282,12.546581
3.351,-0.016977,12.546581
3.352,-0.021002,12.574824
3.353,-0.025833,12.659554
3.354,-0.030824,12.659554
3.355,-0.034044,12.603068
3.356,-0.036137,12.603068
3.357,-0.037908,12.46185
3.358,-0.039679,12.518337
3.359,-0.04145,12.546581
3.36,-0.0429,12.631311
3.361,-0.042578,12.631311
3.362,-0.04145,12.885502
3.363,-0.03823,12.46185
3.364,-0.033561,12.151172
3.365,-0.027604,12.348876
3.366,-0.021646,12.687798
3.367,-0.016011,12.970232
3.368,-0.011181,13.11145
3.369,-0.006994,13.083206
3.37,-0.003452,12.970232
3.371,0.000251,12.687798
3.372,0.00331,12.490094
3.373,0.006369,12.518337
3.374,0.00959,12.659554
3.375,0.013132,12.772528
3.376,0.017157,12.857259
3.377,0.020377,12.970232
3.378,0.022309,12.998476
3.379,0.021021,13.139693
3.38,0.017479,12.970232
3.381,0.011522,12.970232
3.382,0.004276,12.800772
3.383,-0.003774,12.687798
3.384,-0.010859,12.716041
3.385,-0.016172,12.687798
3.386,-0.020036,12.772528
3.387,-0.022934,12.857259
3.388,-0.021324,12.970232
3.389,-0.019553,12.941989
3.39,-0.021002,12.857259
3.391,-0.025672,12.829015
3.392,-0.024222,12.659554
3.393,-0.01746,12.659554
3.394,-0.013435,12.574824
3.395,-0.011181,12.800772
3.396,-0.007155,13.026719
3.397,-0.001681,12.941989
3.398,0.003954,12.941989
3.399,0.008624,12.829015
3.4,0.012327,12.744285
3.401,0.015547,12.631311
3.402,0.016513,12.687798
3.403,0.015708,12.659554
3.404,0.013615,12.264146
3.405,0.012166,12.744285
3.406,0.010717,12.829015
3.407,0.008785,12.913746
3.408,0.006208,12.772528
3.409,0.003149,12.885502
3.41,0.000573,12.574824
3.411,-0.001198,12.490094
3.412,-0.003613,12.433607
3.413,-0.005867,12.37712
3.414,-0.006189,12.46185
3.415,-0.005867,12.716041
3.416,-0.003452,12.800772
3.417,0.000895,12.800772
3.418,0.005725,12.885502
3.419,0.010878,12.603068
3.42,0.015386,12.490094
3.421,0.011683,12.433607
3.422,0.019089,12.433607
3.423,0.014098,12.433607
3.424,0.01442,12.631311
3.425,0.012005,12.603068
3.426,0.010717,12.716041
3.427,0.009107,12.800772
3.428,0.005725,12.687798
3.429,0.002022,12.631311
3.43,-0.002486,12.631311
3.431,-0.007799,12.631311
3.432,-0.012791,12.574824
3.433,-0.017299,12.433607
3.434,-0.022129,12.518337
3.435,-0.027765,12.687798
3.436,-0.034044,12.546581
3.437,-0.037264,13.19618
3.438,-0.037586,12.546581
3.439,-0.035493,12.490094
3.44,-0.032917,12.46185
3.441,-0.03179,12.574824
3.442,-0.030341,13.026719
3.443,-0.027282,13.11145
3.444,-0.024061,13.11145
3.445,-0.02068,12.857259
3.446,-0.016494,12.687798
3.447,-0.01102,12.574824
3.448,-0.00474,12.659554
3.449,0.001861,12.941989
3.45,0.006691,13.083206
3.451,0.008946,13.252667
3.452,0.010073,13.139693
3.453,0.009912,13.139693
3.454,0.008302,12.970232
3.455,0.00653,12.941989
3.456,0.003632,12.970232
3.457,0.000734,12.687798
3.458,-0.001198,12.659554
3.459,-0.000554,12.574824
3.46,0.003149,12.885502
3.461,0.006691,12.885502
3.462,0.009751,13.026719
3.463,0.013454,12.998476
3.464,0.016352,12.970232
3.465,0.016191,12.885502
3.466,0.013132,12.772528
3.467,0.008141,12.772528
3.468,0.007013,12.857259
3.469,0.008624,12.716041
3.47,0.010073,12.631311
3.471,0.008624,12.659554
3.472,0.005081,12.829015
3.473,0.000734,12.913746
3.474,-0.003774,12.941989
3.475,-0.00796,12.913746
3.476,-0.011503,12.941989
3.477,-0.014401,12.800772
3.478,-0.016816,12.716041
3.479,-0.018909,12.716041
3.48,-0.020036,12.320633
3.481,-0.020519,12.37712
3.482,-0.01907,12.970232
3.483,-0.016655,12.970232
3.484,-0.013274,12.970232
3.485,-0.008765,12.800772
3.486,-0.004901,12.659554
3.487,-0.002003,12.518337
3.488,-0.000715,12.348876
3.489,9.00E-05,12.46185
3.49,-0.000232,12.46185
3.491,0.000895,12.574824
3.492,0.002827,12.857259
3.493,0.004759,12.744285
3.494,0.007657,12.687798
3.495,0.010395,12.687798
3.496,0.013615,12.687798
3.497,0.016352,12.574824
3.498,0.012005,12.490094
3.499,0.02086,12.518337
3.5,0.013132,12.603068
3.501,0.011683,12.546581
3.502,0.010234,12.659554
3.503,0.008302,12.687798
3.504,0.006852,12.631311
3.505,0.004276,12.744285
3.506,0.0017,12.687798
3.507,-0.00152,12.716041
3.508,-0.005223,12.603068
3.509,-0.009893,12.46185
3.51,-0.015367,12.348876
3.511,-0.022129,12.546581
3.512,-0.030341,12.659554
3.513,-0.039518,12.716041
3.514,-0.048535,12.687798
3.515,-0.055458,12.659554
3.516,-0.059161,12.433607
3.517,-0.058356,12.37712
3.518,-0.053848,12.800772
3.519,-0.045476,13.083206
3.52,-0.036137,13.026719
3.521,-0.026316,12.970232
3.522,-0.016172,12.716041
3.523,-0.006994,12.46185
3.524,0.001217,12.574824
3.525,0.006852,12.829015
3.526,0.009751,12.941989
3.527,0.009268,13.139693
3.528,0.008302,13.054963
3.529,0.00798,13.11145
3.53,0.00959,13.026719
3.531,0.013615,12.800772
3.532,0.017318,12.829015
3.533,0.02086,12.687798
3.534,0.021343,12.659554
3.535,0.020538,12.659554
3.536,0.018606,12.772528
3.537,0.016513,13.026719
3.538,0.019894,13.026719
3.539,0.013937,12.998476
3.54,0.014581,12.941989
3.541,0.013132,12.941989
3.542,0.006369,12.913746
3.543,-0.000876,12.800772
3.544,-0.002486,12.744285
3.545,-0.000715,12.687798
3.546,0.001056,12.744285
3.547,0.001378,12.716041
3.548,0.002505,12.941989
3.549,0.005403,12.913746
3.55,0.007818,12.857259
3.551,0.008624,12.913746
3.552,0.007013,12.800772
3.553,0.004759,12.800772
3.554,0.000734,12.716041
3.555,-0.005062,12.687798
3.556,-0.010859,12.292389
3.557,-0.015528,12.631311
3.558,-0.018426,12.913746
3.559,-0.018265,12.800772
3.56,-0.016494,13.026719
3.561,-0.013918,12.744285
3.562,-0.010537,12.46185
3.563,-0.007799,12.433607
3.564,-0.00474,12.518337
3.565,-0.003291,12.687798
3.566,-0.002486,12.885502
3.567,-0.004418,12.885502
3.568,-0.009571,12.857259
3.569,-0.018426,12.744285
3.57,-0.03018,12.546581
3.571,-0.048213,12.518337
3.572,-0.057068,12.546581
3.573,-0.069144,12.631311
3.574,-0.078,12.857259
3.575,-0.083474,12.885502
3.576,-0.085889,12.659554
3.577,-0.08766,12.631311
3.578,-0.086855,12.659554
3.579,-0.083796,12.744285
3.58,-0.077034,13.309154
3.581,-0.067695,12.772528
3.582,-0.055619,12.433607
3.583,-0.041772,12.687798
3.584,-0.027443,13.11145
3.585,-0.012469,13.167937
3.586,0.003149,13.139693
3.587,0.01764,12.998476
3.588,0.03036,13.054963
3.589,0.039215,12.941989
3.59,0.045334,12.913746
3.591,0.049359,12.913746
3.592,0.052901,12.687798
3.593,0.056926,12.913746
3.594,0.060952,12.659554
3.595,0.06385,12.885502
3.596,0.063367,12.857259
3.597,0.060147,13.054963
3.598,0.053867,13.054963
3.599,0.046783,13.252667
3.6,0.038732,13.19618
3.601,0.031165,13.252667
3.602,0.024402,13.337397
3.603,0.017479,13.19618
3.604,0.011683,13.167937
3.605,0.00798,13.167937
3.606,0.005403,13.11145
3.607,0.004276,12.857259
3.608,0.002988,12.941989
3.609,0.002344,13.083206
3.61,0.000895,12.970232
3.611,-0.001037,13.167937
3.612,-0.001037,13.252667
3.613,-0.002647,13.337397
3.614,-0.005706,13.337397
3.615,-0.016333,13.083206
3.616,-0.028892,12.998476
3.617,-0.035976,12.941989
3.618,-0.043866,13.026719
3.619,-0.050789,13.309154
3.62,-0.052238,13.309154
3.621,-0.052399,13.026719
3.622,-0.049823,12.885502
3.623,-0.045798,13.054963
3.624,-0.041289,12.603068
3.625,-0.034849,13.083206
3.626,-0.027443,13.026719
3.627,-0.019392,13.224424
3.628,-0.011181,13.224424
3.629,-0.003452,13.054963
3.63,0.004598,12.829015
3.631,0.010234,12.744285
3.632,0.013937,12.716041
3.633,0.015708,12.687798
3.634,0.016674,12.885502
3.635,0.016352,12.970232
3.636,0.015225,13.19618
3.637,0.012971,13.139693
3.638,0.009912,12.941989
3.639,0.006369,12.970232
3.64,0.002505,13.026719
3.641,-0.000554,12.829015
3.642,-0.007316,12.800772
3.643,-0.008604,12.913746
3.644,-0.019875,12.913746
3.645,-0.025349,12.941989
3.646,-0.029375,13.19618
3.647,-0.032434,12.970232
3.648,-0.034849,12.941989
3.649,-0.036459,12.829015
3.65,-0.036942,12.913746
3.651,-0.036942,12.716041
3.652,-0.03501,12.970232
3.653,-0.030824,13.054963
3.654,-0.024383,12.998476
3.655,-0.016172,12.970232
3.656,-0.006833,13.478615
3.657,0.003793,12.913746
3.658,0.013132,12.716041
3.659,0.019733,12.772528
3.66,0.021343,12.490094
3.661,0.018767,12.518337
3.662,0.013776,12.744285
3.663,0.007496,12.998476
3.664,0.002505,13.054963
3.665,-0.000393,13.224424
3.666,-0.00152,13.337397
3.667,-0.001359,13.365641
3.668,-7.10E-05,13.252667
3.669,0.00331,13.139693
3.67,0.007657,13.026719
3.671,0.011844,12.885502
3.672,0.013132,12.885502
3.673,0.011522,13.026719
3.674,0.007496,13.026719
3.675,0.002344,13.11145
3.676,-0.003774,13.28091
3.677,-0.010054,13.393884
3.678,-0.016011,13.309154
3.679,-0.020841,13.139693
3.68,-0.025027,13.054963
3.681,-0.027604,12.857259
3.682,-0.028892,12.998476
3.683,-0.028248,13.28091
3.684,-0.023739,13.28091
3.685,-0.01746,13.309154
3.686,-0.01907,13.139693
3.687,-0.021002,12.913746
3.688,-0.015367,12.829015
3.689,-0.011825,12.941989
3.69,-0.011181,13.054963
3.691,-0.010376,13.28091
3.692,-0.01102,13.28091
3.693,-0.011986,13.026719
3.694,-0.012308,12.913746
3.695,-0.008765,12.857259
3.696,-0.003291,12.800772
3.697,0.004437,12.518337
3.698,0.013293,13.224424
3.699,0.020216,13.054963
3.7,0.024886,12.913746
3.701,0.028267,12.829015
3.702,0.029072,13.139693
3.703,0.02875,13.19618
3.704,0.027945,12.998476
3.705,0.027462,12.716041
3.706,0.026979,12.687798
3.707,0.026979,12.687798
3.708,0.026657,12.631311
3.709,0.025208,12.744285
3.71,0.022953,12.687798
3.711,0.019894,12.829015
3.712,0.015869,13.054963
3.713,0.011039,12.970232
3.714,0.006208,13.083206
3.715,0.0017,12.970232
3.716,-0.002325,12.941989
3.717,-0.00635,12.716041
3.718,-0.011181,12.659554
3.719,-0.019392,12.716041
3.72,-0.022773,12.970232
3.721,-0.02551,12.941989
3.722,-0.025672,12.970232
3.723,-0.026155,12.885502
3.724,-0.026316,12.716041
3.725,-0.028248,12.744285
3.726,-0.030341,12.659554
3.727,-0.03018,12.659554
3.728,-0.027282,12.744285
3.729,-0.022773,12.998476
3.73,-0.018587,12.857259
3.731,-0.01424,13.337397
3.732,-0.009249,12.744285
3.733,-0.003613,12.744285
3.734,0.002183,12.405363
3.735,0.00653,12.518337
3.736,0.008624,12.631311
3.737,0.008785,13.026719
3.738,0.006369,13.252667
3.739,0.002666,13.450371
3.74,-0.001037,13.365641
3.741,-0.003613,13.337397
3.742,-0.004418,13.19618
3.743,-0.004096,12.941989
3.744,-0.002486,12.857259
3.745,0.000573,12.857259
3.746,0.004759,12.744285
3.747,0.008785,12.941989
3.748,0.012005,13.083206
3.749,0.013615,13.28091
3.75,0.013293,13.506858
3.751,0.011844,13.309154
3.752,0.00959,13.252667
3.753,0.007496,13.252667
3.754,0.005242,13.054963
3.755,0.004115,12.941989
3.756,0.003632,12.885502
3.757,0.004759,12.772528
3.758,0.006852,12.885502
3.759,0.009429,12.970232
3.76,0.010878,13.19618
3.761,0.017801,13.224424
3.762,0.013937,13.026719
3.763,0.011844,13.224424
3.764,0.007657,13.11145
3.765,-0.001681,13.026719
3.766,-0.008604,12.970232
3.767,-0.008604,12.857259
3.768,-0.005384,12.857259
3.769,-0.002325,13.11145
3.77,-0.000393,13.054963
3.771,0.002344,13.083206
3.772,0.00653,13.054963
3.773,0.010717,13.167937
3.774,0.013776,12.941989
3.775,0.015708,13.083206
3.776,0.016835,13.054963
3.777,0.01764,12.941989
3.778,0.01764,12.829015
3.779,0.015225,12.857259
3.78,0.010717,12.574824
3.781,0.007818,12.941989
3.782,0.008141,13.252667
3.783,0.011039,13.026719
3.784,0.013293,13.026719
3.785,0.014903,12.998476
3.786,0.014098,12.998476
3.787,0.013132,12.998476
3.788,0.012488,12.716041
3.789,0.0112,12.603068
3.79,0.008463,12.631311
3.791,0.003793,12.659554
3.792,-0.001842,12.631311
3.793,-0.008765,12.829015
3.794,-0.016333,12.970232
3.795,-0.021002,13.026719
3.796,-0.023095,12.829015
3.797,-0.022934,12.885502
3.798,-0.021324,12.687798
3.799,-0.016816,12.687798
3.8,-0.023578,12.716041
3.801,-0.021807,12.772528
3.802,-0.02068,12.970232
3.803,-0.019714,12.913746
3.804,-0.017782,12.885502
3.805,-0.01424,12.829015
3.806,-0.009571,12.716041
3.807,-0.00474,12.659554
3.808,0.000412,12.687798
3.809,0.006047,12.716041
3.81,0.010717,12.716041
3.811,0.01442,12.913746
3.812,0.015869,12.970232
3.813,0.01603,12.829015
3.814,0.015547,12.941989
3.815,0.014903,12.913746
3.816,0.015547,13.252667
3.817,0.01442,12.885502
3.818,0.010878,12.772528
3.819,0.00492,12.687798
3.82,-0.001198,12.46185
3.821,-0.006833,12.631311
3.822,-0.012147,12.772528
3.823,-0.016011,13.167937
3.824,-0.018748,13.28091
3.825,-0.020197,13.478615
3.826,-0.019714,13.337397
3.827,-0.018265,13.28091
3.828,-0.016172,12.998476
3.829,-0.013596,12.885502
3.83,-0.010698,12.941989
3.831,-0.008443,12.998476
3.832,-0.005867,13.224424
3.833,-0.003613,13.309154
3.834,-0.001198,13.478615
3.835,0.001056,13.393884
3.836,0.002827,13.365641
3.837,0.003793,13.309154
3.838,0.005403,13.252667
3.839,0.007657,12.970232
3.84,0.008624,12.857259
3.841,0.008302,12.800772
3.842,0.006852,13.11145
3.843,0.004759,13.139693
3.844,0.002666,13.309154
3.845,0.000251,13.422128
3.846,-0.001037,13.506858
3.847,-0.002486,13.309154
3.848,-0.006833,13.393884
3.849,-0.014723,13.224424
3.85,-0.017782,13.054963
3.851,-0.013274,13.224424
3.852,-0.007799,13.167937
3.853,-0.00474,13.252667
3.854,-0.001681,13.393884
3.855,0.001056,13.393884
3.856,0.001861,13.619832
3.857,0.000573,13.535102
3.858,-0.002486,13.506858
3.859,-0.003935,13.365641
3.86,-0.002647,13.167937
3.861,-0.000393,13.28091
3.862,0.002183,12.829015
3.863,0.003471,13.309154
3.864,0.00331,13.648075
3.865,0.003632,13.450371
3.866,0.005886,13.478615
3.867,0.011844,13.704562
3.868,0.019733,13.563345
3.869,0.026979,13.365641
3.87,0.030843,13.337397
3.871,0.03197,13.19618
3.872,0.031487,13.11145
3.873,0.031004,13.28091
3.874,0.030843,13.309154
3.875,0.030521,13.591588
3.876,0.030682,13.422128
3.877,0.032292,13.761049
3.878,0.034224,13.676319
3.879,0.034868,13.563345
3.88,0.033902,13.704562
3.881,0.029233,13.591588
3.882,0.021665,13.704562
3.883,0.01281,13.648075
3.884,0.005242,13.506858
3.885,-0.007477,13.478615
3.886,-0.009088,13.393884
3.887,-0.017782,13.648075
3.888,-0.020197,13.761049
3.889,-0.01907,13.789293
3.89,-0.015367,13.704562
3.891,-0.011181,13.789293
3.892,-0.009571,13.648075
3.893,-0.011664,13.619832
3.894,-0.016333,13.535102
3.895,-0.021968,13.648075
3.896,-0.026799,13.789293
3.897,-0.030824,13.902267
3.898,-0.033561,13.874023
3.899,-0.034366,14.184701
3.9,-0.033078,13.591588
3.901,-0.029375,13.563345
3.902,-0.024544,13.619832
3.903,-0.021002,14.184701
3.904,-0.018748,14.523623
3.905,-0.017621,14.467136
3.906,-0.016011,14.467136
3.907,-0.012952,14.382405
3.908,-0.008604,13.986997
3.909,-0.002808,13.986997
3.91,0.0017,14.156458
3.911,0.003632,14.212945
3.912,0.005242,14.410649
3.913,0.007818,14.551866
3.914,0.0112,14.721327
3.915,0.014581,14.636596
3.916,0.015708,14.467136
3.917,0.014259,14.410649
3.918,0.012166,14.325918
3.919,0.011844,14.156458
3.92,0.012005,14.382405
3.921,0.011683,14.410649
3.922,0.010717,14.410649
3.923,0.009912,14.495379
3.924,0.009429,14.693083
3.925,0.014903,14.66484
3.926,0.013615,14.608353
3.927,0.014742,14.862544
3.928,0.015064,14.551866
3.929,0.011039,14.551866
3.93,0.005242,14.495379
3.931,0.003149,14.410649
3.932,0.00492,14.523623
3.933,0.008141,14.438892
3.934,0.009912,14.608353
3.935,0.010234,14.721327
3.936,0.010234,14.806057
3.937,0.009912,14.777814
3.938,0.008141,14.721327
3.939,0.00492,14.806057
3.94,0.000251,14.608353
3.941,-0.005062,14.410649
3.942,-0.00941,14.523623
3.943,-0.013596,14.495379
3.944,-0.017299,14.325918
3.945,-0.021807,14.693083
3.946,-0.024866,14.74957
3.947,-0.024061,14.66484
3.948,-0.018265,14.467136
3.949,-0.010054,14.297675
3.95,-0.000715,14.354162
3.951,0.009107,14.382405
3.952,0.017479,14.410649
3.953,0.024886,14.523623
3.954,0.029877,14.721327
3.955,0.03197,14.777814
3.956,0.031326,14.721327
3.957,0.027945,14.74957
3.958,0.023597,14.693083
3.959,0.018284,14.58011
3.96,0.014259,14.467136
3.961,0.006208,14.325918
3.962,0.008624,14.523623
3.963,-0.001359,14.495379
3.964,-0.000554,14.608353
3.965,-0.000715,14.806057
3.966,0.000251,14.74957
3.967,0.000734,14.834301
3.968,0.000734,14.66484
3.969,0.001539,14.551866
3.97,0.001056,14.325918
3.971,-0.00152,14.325918
3.972,-0.006189,14.410649
3.973,-0.010859,14.58011
3.974,-0.013757,14.551866
3.975,-0.014884,14.721327
3.976,-0.015045,14.693083
3.977,-0.015206,14.74957
3.978,-0.015367,15.003761
3.979,-0.016494,14.438892
3.98,-0.01907,14.467136
3.981,-0.022451,14.382405
3.982,-0.027121,14.410649
3.983,-0.032112,14.777814
3.984,-0.035976,15.003761
3.985,-0.038713,15.144979
3.986,-0.039518,14.975518
3.987,-0.038552,14.74957
3.988,-0.03501,14.467136
3.989,-0.028892,14.551866
3.99,-0.021485,14.777814
3.991,-0.012791,14.919031
3.992,-0.005384,15.032005
3.993,-0.000232,15.088492
3.994,0.002505,15.201466
3.995,0.002988,15.032005
3.996,0.002022,14.890788
3.997,-0.001037,14.721327
3.998,-0.00474,14.608353
3.999,-0.008443,14.551866
4,-0.011986,14.551866
4.001,-0.015045,14.834301
4.002,-0.016011,14.806057
4.003,-0.016333,14.947274
4.004,-0.012952,14.890788
4.005,-0.009571,15.088492
4.006,-0.006833,14.777814
4.007,-0.008443,14.66484
4.008,-0.009571,14.636596
4.009,-0.004418,14.523623
4.01,0.002666,14.551866
4.011,0.007657,14.551866
4.012,0.009107,14.806057
4.013,0.009268,14.806057
4.014,0.009429,14.862544
4.015,0.009429,14.919031
4.016,0.00959,14.777814
4.017,0.010073,14.721327
4.018,0.009912,14.636596
4.019,0.009268,14.551866
4.02,0.008302,14.438892
4.021,0.006047,14.58011
4.022,0.003954,14.467136
4.023,0.002666,14.241188
4.024,0.001217,14.438892
4.025,-0.000554,14.806057
4.026,-0.003452,14.74957
4.027,-0.007155,14.551866
4.028,-0.010537,14.693083
4.029,-0.012791,14.467136
4.03,-0.013435,14.269431
4.031,-0.011986,14.156458
4.032,-0.00941,14.269431
4.033,-0.005867,14.297675
4.034,-0.002647,14.467136
4.035,-0.000715,14.608353
4.036,9.00E-05,14.58011
4.037,-7.10E-05,14.438892
4.038,-0.000393,14.354162
4.039,-7.10E-05,14.269431
4.04,0.001378,14.156458
4.041,0.002827,14.043484
4.042,0.003793,14.269431
4.043,0.007335,14.382405
4.044,0.011844,14.410649
4.045,0.01442,14.297675
4.046,0.01603,14.382405
4.047,0.014581,14.438892
4.048,0.011683,14.410649
4.049,0.008302,14.241188
4.05,0.004115,14.071727
4.051,-0.001198,14.269431
4.052,-0.00474,14.212945
4.053,-0.007316,14.128214
4.054,-0.009249,14.269431
4.055,-0.011825,14.325918
4.056,-0.015206,14.354162
4.057,-0.018748,14.212945
4.058,-0.022129,14.382405
4.059,-0.024705,14.325918
4.06,-0.02696,14.043484
4.061,-0.028248,13.874023
4.062,-0.028892,14.128214
4.063,-0.028087,14.269431
4.064,-0.025672,14.551866
4.065,-0.021968,14.693083
4.066,-0.017782,14.523623
4.067,-0.013757,14.297675
4.068,-0.009249,14.01524
4.069,-0.004901,14.071727
4.07,-0.001037,14.128214
4.071,0.0017,14.241188
4.072,0.004276,14.354162
4.073,0.006047,14.495379
4.074,0.006852,14.58011
4.075,0.006208,14.58011
4.076,0.004437,14.58011
4.077,0.002988,14.438892
4.078,0.002183,14.241188
4.079,0.002666,14.128214
4.08,0.004276,14.043484
4.081,0.006208,14.01524
4.082,0.008463,14.099971
4.083,0.009751,14.325918
4.084,0.008463,14.467136
4.085,0.011522,14.325918
4.086,0.008946,14.495379
4.087,0.00959,14.495379
4.088,0.006047,14.071727
4.089,0.000734,14.128214
4.09,-0.00152,13.902267
4.091,-0.000393,13.817536
4.092,0.001217,14.01524
4.093,9.00E-05,14.128214
4.094,-0.003452,14.212945
4.095,-0.006189,14.325918
4.096,-0.008121,14.438892
4.097,-0.009088,14.241188
4.098,-0.010376,14.212945
4.099,-0.01102,13.986997
4.1,-0.010376,13.93051
4.101,-0.010376,13.874023
4.102,-0.011825,13.563345
4.103,-0.01424,14.071727
4.104,-0.01746,14.156458
4.105,-0.021002,14.071727
4.106,-0.023739,14.071727
4.107,-0.026477,13.986997
4.108,-0.02857,13.676319
4.109,-0.029053,13.704562
4.11,-0.027926,13.648075
4.111,-0.024061,14.01524
4.112,-0.020036,14.043484
4.113,-0.015689,13.958753
4.114,-0.011342,13.817536
4.115,-0.006833,13.817536
4.116,-0.002486,13.591588
4.117,0.0017,13.563345
4.118,0.009268,13.676319
4.119,0.005725,13.761049
4.12,0.010878,13.902267
4.121,0.013454,13.902267
4.122,0.015225,13.817536
4.123,0.016191,13.958753
4.124,0.015225,13.874023
4.125,0.01442,13.874023
4.126,0.013615,13.84578
4.127,0.012005,13.704562
4.128,0.009107,13.676319
4.129,0.005081,13.563345
4.13,0.000412,13.506858
4.131,-0.005545,13.704562
4.132,-0.011664,13.761049
4.133,-0.017621,13.902267
4.134,-0.022612,13.676319
4.135,-0.025833,13.704562
4.136,-0.02696,14.212945
4.137,-0.02696,13.563345
4.138,-0.025188,13.591588
4.139,-0.023739,13.535102
4.14,-0.023095,13.619832
4.141,-0.023417,13.958753
4.142,-0.024705,14.128214
4.143,-0.025349,14.099971
4.144,-0.025672,14.128214
4.145,-0.02551,13.902267
4.146,-0.026155,13.676319
4.147,-0.027443,13.591588
4.148,-0.027765,13.817536
4.149,-0.027765,14.128214
4.15,-0.026155,14.269431
4.151,-0.023417,14.099971
4.152,-0.02068,13.817536
4.153,-0.017943,13.817536
4.154,-0.016494,13.761049
4.155,-0.015206,13.817536
4.156,-0.013274,13.817536
4.157,-0.009893,14.128214
4.158,-0.00313,14.184701
4.159,0.002022,14.01524
4.16,0.002344,13.958753
4.161,-0.004418,13.817536
4.162,-0.006028,13.648075
4.163,-0.004418,13.761049
4.164,-0.002808,13.676319
4.165,-0.002647,13.84578
4.166,-0.003613,14.043484
4.167,-0.003291,13.902267
4.168,-0.002164,13.84578
4.169,-0.002325,13.874023
4.17,-0.002969,13.93051
4.171,-0.002808,13.789293
4.172,0.000251,13.732806
4.173,0.004437,13.704562
4.174,0.008624,13.478615
4.175,0.013293,13.619832
4.176,0.017801,13.958753
4.177,0.021182,13.902267
4.178,0.022148,13.761049
4.179,0.021987,13.874023
4.18,0.021343,13.958753
4.181,0.019733,13.817536
4.182,0.017157,13.789293
4.183,0.014581,13.619832
4.184,0.012488,13.422128
4.185,0.010073,13.422128
4.186,0.00798,13.422128
4.187,0.006208,13.506858
4.188,0.004276,13.648075
4.189,0.00331,13.817536
4.19,0.003471,13.761049
4.191,0.00492,13.704562
4.192,0.006691,13.704562
4.193,0.009268,13.704562
4.194,0.011683,13.450371
4.195,0.01281,13.506858
4.196,0.007657,13.422128
4.197,0.011039,13.478615
4.198,0.004437,13.563345
4.199,0.003632,13.591588
4.2,0.0017,13.648075
4.201,0.002666,13.789293
4.202,0.0017,13.761049
4.203,0.001056,13.619832
4.204,9.00E-05,13.535102
4.205,-0.000232,13.535102
4.206,0.000251,13.506858
4.207,0.001056,13.535102
4.208,0.000734,13.506858
4.209,-0.000393,13.535102
4.21,-0.002486,13.563345
4.211,-0.004901,13.478615
4.212,-0.007799,13.591588
4.213,-0.011503,13.986997
4.214,-0.015689,13.619832
4.215,-0.020358,13.478615
4.216,-0.024383,13.337397
4.217,-0.027443,13.422128
4.218,-0.030663,13.789293
4.219,-0.034366,13.84578
4.22,-0.038391,13.986997
4.221,-0.041611,13.958753
4.222,-0.0429,13.591588
4.223,-0.043222,13.450371
4.224,-0.041772,13.591588
4.225,-0.040001,13.84578
4.226,-0.036942,14.071727
4.227,-0.032434,13.986997
4.228,-0.026638,13.789293
4.229,-0.021163,13.789293
4.23,-0.01585,13.535102
4.231,-0.010698,13.506858
4.232,-0.005062,13.648075
4.233,-0.000715,13.817536
4.234,0.006852,13.93051
4.235,0.012327,13.902267
4.236,0.014903,13.704562
4.237,0.010234,13.563345
4.238,0.001861,13.591588
4.239,-0.004579,13.535102
4.24,-0.008443,13.450371
4.241,-0.012469,13.761049
4.242,-0.017299,13.732806
4.243,-0.018265,13.732806
4.244,-0.013918,13.761049
4.245,-0.008121,13.704562
4.246,-0.000554,13.591588
4.247,0.007818,13.563345
4.248,0.015386,13.506858
4.249,0.022309,13.478615
4.25,0.028589,13.054963
4.251,0.03358,13.393884
4.252,0.038088,13.761049
4.253,0.040342,13.789293
4.254,0.040181,13.732806
4.255,0.037766,13.648075
4.256,0.033097,13.704562
4.257,0.027623,13.761049
4.258,0.021504,13.619832
4.259,0.016996,13.535102
4.26,0.014098,13.478615
4.261,0.012488,13.19618
4.262,0.011844,13.28091
4.263,0.01281,13.309154
4.264,0.015386,13.337397
4.265,0.016835,13.478615
4.266,0.018767,13.761049
4.267,0.01925,13.732806
4.268,0.018123,13.619832
4.269,0.014903,13.563345
4.27,0.010717,13.422128
4.271,0.005886,13.309154
4.272,-0.003774,13.28091
4.273,-7.10E-05,13.252667
4.274,-0.009732,13.337397
4.275,-0.010859,13.365641
4.276,-0.012308,13.478615
4.277,-0.011181,13.591588
4.278,-0.011342,13.535102
4.279,-0.012791,13.422128
4.28,-0.014079,13.337397
4.281,-0.014562,13.28091
4.282,-0.013918,13.252667
4.283,-0.012469,13.19618
4.284,-0.010859,13.28091
4.285,-0.00941,13.365641
4.286,-0.009088,13.450371
4.287,-0.006994,13.393884
4.288,-0.004579,13.619832
4.289,-0.001842,13.84578
4.29,0.000412,13.252667
4.291,0.003632,13.422128
4.292,0.00653,13.139693
4.293,0.009912,13.19618
4.294,0.013132,13.309154
4.295,0.015708,13.676319
4.296,0.016835,13.704562
4.297,0.016513,13.84578
4.298,0.015547,13.902267
4.299,0.01281,13.958753
4.3,0.008463,13.619832
4.301,0.00331,13.450371
4.302,-0.001681,13.478615
4.303,-0.00635,13.422128
4.304,-0.01263,13.450371
4.305,-0.01907,13.563345
4.306,-0.025672,13.704562
4.307,-0.032112,13.84578
4.308,-0.038552,13.789293
4.309,-0.046281,13.563345
4.31,-0.05417,13.365641
4.311,-0.061899,13.393884
4.312,-0.067856,13.619832
4.313,-0.065924,13.789293
4.314,-0.060289,13.761049
4.315,-0.062543,13.393884
4.316,-0.057229,13.365641
4.317,-0.045637,13.506858
4.318,-0.035815,13.563345
4.319,-0.021807,13.732806
4.32,-0.008765,13.591588
4.321,0.000412,13.422128
4.322,0.005081,13.365641
4.323,0.007335,13.224424
4.324,0.008946,13.19618
4.325,0.010234,13.337397
4.326,0.011039,12.941989
4.327,0.012327,13.28091
4.328,0.013615,13.761049
4.329,0.015064,13.619832
4.33,0.01764,13.478615
4.331,0.021665,13.535102
4.332,0.026174,13.478615
4.333,0.029233,13.563345
4.334,0.031648,13.224424
4.335,0.033097,13.167937
4.336,0.033258,13.054963
4.337,0.03358,12.970232
4.338,0.033419,13.11145
4.339,0.033741,13.083206
4.34,0.032292,13.139693
4.341,0.029394,13.19618
4.342,0.025691,13.28091
4.343,0.021021,13.422128
4.344,0.016674,13.422128
4.345,0.011683,13.393884
4.346,0.006852,13.393884
4.347,0.002827,13.28091
4.348,-0.000876,13.19618
4.349,-0.004257,13.167937
4.35,-0.008604,12.970232
4.351,-0.017621,13.054963
4.352,-0.021807,13.139693
4.353,-0.027443,13.365641
4.354,-0.030502,13.309154
4.355,-0.035493,13.28091
4.356,-0.038552,13.252667
4.357,-0.039518,13.11145
4.358,-0.039518,13.167937
4.359,-0.03823,13.083206
4.36,-0.037908,13.252667
4.361,-0.040484,13.309154
4.362,-0.044027,13.450371
4.363,-0.046442,13.704562
4.364,-0.046764,13.309154
4.365,-0.043705,13.167937
4.366,-0.037264,12.829015
4.367,-0.029697,12.970232
4.368,-0.021324,13.422128
4.369,-0.013113,13.676319
4.37,-0.003613,13.789293
4.371,0.004598,13.732806
4.372,0.012327,13.648075
4.373,0.020055,13.535102
4.374,0.027301,13.535102
4.375,0.033258,13.450371
4.376,0.037766,13.337397
4.377,0.04147,13.252667
4.378,0.043402,13.167937
4.379,0.04308,13.139693
4.38,0.040181,13.083206
4.381,0.035351,13.19618
4.382,0.028428,13.478615
4.383,0.020216,13.535102
4.384,0.011683,13.506858
4.385,0.003793,13.619832
4.386,-0.004257,13.732806
4.387,-0.011664,13.676319
4.388,-0.016977,13.591588
4.389,-0.01907,13.619832
4.39,-0.018587,13.28091
4.391,-0.016655,13.19618
4.392,-0.01424,13.19618
4.393,-0.012469,13.450371
4.394,-0.012308,13.478615
4.395,-0.011342,13.704562
4.396,-0.010698,13.648075
4.397,-0.011986,13.619832
4.398,-0.01907,13.309154
4.399,-0.027926,13.224424
4.4,-0.030019,13.28091
4.401,-0.031146,13.252667
4.402,-0.034849,13.422128
4.403,-0.037103,13.591588
4.404,-0.039357,13.478615
4.405,-0.042094,13.450371
4.406,-0.044993,13.450371
4.407,-0.04773,13.28091
4.408,-0.050306,13.252667
4.409,-0.051594,13.026719
4.41,-0.051916,13.450371
4.411,-0.052238,13.224424
4.412,-0.050306,13.337397
4.413,-0.044832,13.054963
4.414,-0.037425,12.970232
4.415,-0.029214,13.026719
4.416,-0.019714,12.998476
4.417,-0.01102,13.337397
4.418,-0.005384,13.28091
4.419,-0.001037,13.393884
4.42,0.002022,13.19618
4.421,0.004759,13.139693
4.422,0.007174,13.083206
4.423,0.009751,13.026719
4.424,0.010556,12.885502
4.425,0.011683,13.139693
4.426,0.010556,13.224424
4.427,0.015225,13.224424
4.428,0.019733,13.139693
4.429,0.026335,13.28091
4.43,0.034385,13.393884
4.431,0.04147,13.28091
4.432,0.0463,13.309154
4.433,0.049359,13.19618
4.434,0.051613,13.337397
4.435,0.052096,13.309154
4.436,0.050808,13.167937
4.437,0.048876,13.167937
4.438,0.045495,13.19618
4.439,0.041309,13.11145
4.44,0.036317,12.998476
4.441,0.030682,13.026719
4.442,0.026013,13.139693
4.443,0.022309,13.054963
4.444,0.019733,13.139693
4.445,0.017157,13.139693
4.446,0.013776,13.309154
4.447,0.009912,13.422128
4.448,0.005081,13.337397
4.449,-0.000393,13.224424
4.45,-0.005223,13.676319
4.451,-0.009571,13.11145
4.452,-0.014079,13.224424
4.453,-0.020841,12.970232
4.454,-0.029053,13.167937
4.455,-0.037264,13.28091
4.456,-0.043866,13.676319
4.457,-0.048535,13.732806
4.458,-0.052721,13.789293
4.459,-0.055458,13.450371
4.46,-0.054975,13.28091
4.461,-0.050628,13.28091
4.462,-0.042094,13.535102
4.463,-0.030502,13.676319
4.464,-0.017943,13.817536
4.465,-0.007316,13.732806
4.466,9.00E-05,13.506858
4.467,0.005725,13.365641
4.468,0.010878,13.337397
4.469,0.017157,13.252667
4.47,0.023114,13.337397
4.471,0.027784,13.422128
4.472,0.031648,13.648075
4.473,0.034546,13.591588
4.474,0.040825,13.563345
4.475,0.04147,13.761049
4.476,0.04308,13.789293
4.477,0.042597,13.817536
4.478,0.040664,13.704562
4.479,0.035995,13.648075
4.48,0.029072,13.591588
4.481,0.021343,13.422128
4.482,0.015064,13.422128
4.483,0.013293,13.252667
4.484,0.012971,13.309154
4.485,0.012971,13.591588
4.486,0.010717,13.506858
4.487,0.007818,13.563345
4.488,0.005242,13.535102
4.489,0.002022,13.591588
4.49,-0.002164,13.619832
4.491,-0.007477,13.478615
4.492,-0.013113,13.337397
4.493,-0.017943,13.337397
4.494,-0.022773,13.252667
4.495,-0.027282,12.970232
4.496,-0.031307,13.676319
4.497,-0.033561,13.563345
4.498,-0.035171,13.450371
4.499,-0.036942,13.422128
4.5,-0.037103,13.11145
4.501,-0.03501,13.026719
4.502,-0.031146,12.998476
4.503,-0.025994,13.365641
4.504,-0.021968,13.422128
4.505,-0.01907,13.506858
4.506,-0.016333,13.365641
4.507,-0.013435,13.309154
4.508,-0.01102,13.054963
4.509,-0.005867,13.054963
4.51,-0.008443,13.11145
4.511,-0.006672,13.139693
4.512,-0.006189,13.252667
4.513,-0.006189,13.252667
4.514,-0.008121,13.365641
4.515,-0.010698,13.19618
4.516,-0.012791,13.252667
4.517,-0.012791,13.28091
4.518,-0.009571,13.083206
4.519,-0.004579,13.139693
4.52,0.000573,13.224424
4.521,0.006369,13.252667
4.522,0.010717,13.309154
4.523,0.013776,13.422128
4.524,0.015064,13.083206
4.525,0.015547,13.309154
4.526,0.016835,13.422128
4.527,0.019733,13.732806
4.528,0.023436,12.998476
4.529,0.027623,13.139693
4.53,0.031326,12.941989
4.531,0.033097,12.998476
4.532,0.032614,13.026719
4.533,0.029716,13.11145
4.534,0.026335,13.252667
4.535,0.023114,13.478615
4.536,0.021021,13.619832
4.537,0.019411,13.704562
4.538,0.017318,13.84578
4.539,0.014742,13.619832
4.54,0.0112,13.619832
4.541,0.006369,13.450371
4.542,0.002505,13.309154
4.543,0.000251,13.224424
4.544,-0.000876,13.309154
4.545,-0.002164,13.450371
4.546,-0.004579,13.450371
4.547,-0.008604,13.591588
4.548,-0.012952,13.817536
4.549,-0.017138,13.817536
4.55,-0.021324,13.732806
4.551,-0.025349,13.393884
4.552,-0.028892,13.252667
4.553,-0.031468,13.167937
4.554,-0.032434,13.337397
4.555,-0.030663,13.535102
4.556,-0.024383,13.591588
4.557,-0.01585,13.732806
4.558,-0.01102,13.619832
4.559,-0.015206,13.478615
4.56,-0.017943,13.167937
4.561,-0.016977,13.252667
4.562,-0.01746,13.478615
4.563,-0.01907,13.506858
4.564,-0.018748,13.619832
4.565,-0.016816,13.563345
4.566,-0.014723,13.563345
4.567,-0.01102,13.393884
4.568,-0.00474,13.224424
4.569,0.001861,13.224424
4.57,0.007818,12.941989
4.571,0.013454,13.337397
4.572,0.019411,13.761049
4.573,0.024402,13.450371
4.574,0.028106,13.478615
4.575,0.031165,13.535102
4.576,0.034224,13.535102
4.577,0.035834,13.506858
4.578,0.0368,13.365641
4.579,0.037927,13.224424
4.58,0.038249,13.026719
4.581,0.037283,13.11145
4.582,0.034707,12.913746
4.583,0.030682,13.139693
4.584,0.025369,13.083206
4.585,0.019733,13.139693
4.586,0.014098,13.309154
4.587,0.009107,13.535102
4.588,0.005403,13.478615
4.589,0.00331,13.337397
4.59,0.002505,13.309154
4.591,0.002988,13.167937
4.592,0.002988,13.083206
4.593,0.004598,13.083206
4.594,-0.004579,13.167937
4.595,-0.008121,13.252667
4.596,-0.013274,13.393884
4.597,-0.017299,13.224424
4.598,-0.021324,13.139693
4.599,-0.024383,13.224424
4.6,-0.028248,13.252667
4.601,-0.033722,13.252667
4.602,-0.040162,13.054963
4.603,-0.045476,13.083206
4.604,-0.048857,13.11145
4.605,-0.049501,13.337397
4.606,-0.048535,13.224424
4.607,-0.046764,13.422128
4.608,-0.044671,12.998476
4.609,-0.0429,12.829015
4.61,-0.04145,13.083206
4.611,-0.040001,13.563345
4.612,-0.039035,13.704562
4.613,-0.03662,13.535102
4.614,-0.033883,13.422128
4.615,-0.029858,13.19618
4.616,-0.024061,13.054963
4.617,-0.016172,13.309154
4.618,-0.007316,13.393884
4.619,0.002505,13.704562
4.62,0.011361,13.704562
4.621,0.01925,13.619832
4.622,0.025691,13.619832
4.623,0.030199,13.450371
4.624,0.032775,13.563345
4.625,0.033097,13.309154
4.626,0.032292,13.167937
4.627,0.030843,13.139693
4.628,0.030038,13.083206
4.629,0.029072,13.28091
4.63,0.028589,13.224424
4.631,0.029394,13.28091
4.632,0.031004,13.393884
4.633,0.031809,13.337397
4.634,0.031809,13.506858
4.635,0.034707,13.619832
4.636,0.033258,13.563345
4.637,0.03358,13.591588
4.638,0.032775,13.506858
4.639,0.032292,13.393884
4.64,0.030682,13.365641
4.641,0.026496,13.28091
4.642,0.021343,13.28091
4.643,0.016513,13.28091
4.644,0.010395,13.139693
4.645,0.005081,13.19618
4.646,0.000251,13.11145
4.647,-0.006511,13.309154
4.648,-0.016172,13.28091
4.649,-0.024866,13.309154
4.65,-0.031307,13.365641
4.651,-0.035815,13.422128
4.652,-0.039196,13.422128
4.653,-0.040967,13.252667
4.654,-0.040645,13.167937
4.655,-0.03823,12.829015
4.656,-0.034205,12.913746
4.657,-0.03018,13.478615
4.658,-0.026799,13.309154
4.659,-0.024544,13.309154
4.66,-0.023095,13.252667
4.661,-0.022129,13.026719
4.662,-0.019714,13.054963
4.663,-0.016816,12.716041
4.664,-0.013435,12.800772
4.665,-0.009571,13.054963
4.666,-0.005706,13.11145
4.667,-0.002969,13.337397
4.668,-0.000876,13.28091
4.669,-0.000232,13.252667
4.67,0.002183,13.28091
4.671,0.005242,13.309154
4.672,0.008302,13.054963
4.673,0.010717,12.941989
4.674,0.012971,12.970232
4.675,0.015225,12.829015
4.676,0.013937,12.857259
4.677,0.009268,12.885502
4.678,0.007174,12.941989
4.679,0.002988,13.167937
4.68,-0.000393,13.11145
4.681,-0.002808,13.139693
4.682,-0.005545,13.19618
4.683,-0.008282,13.083206
4.684,-0.012147,13.083206
4.685,-0.015689,12.913746
4.686,-0.019553,12.829015
4.687,-0.023578,12.941989
4.688,-0.02696,13.054963
4.689,-0.029375,13.083206
4.69,-0.030019,12.998476
4.691,-0.028409,13.054963
4.692,-0.026155,13.478615
4.693,-0.0239,13.167937
4.694,-0.021968,12.744285
4.695,-0.019714,12.744285
4.696,-0.017943,12.772528
4.697,-0.01585,12.998476
4.698,-0.013596,13.28091
4.699,-0.010215,13.19618
4.7,-0.005545,13.506858
4.701,-0.000554,13.450371
4.702,0.004276,13.478615
4.703,0.008463,13.393884
4.704,0.011522,13.224424
4.705,0.015064,13.167937
4.706,0.018606,12.941989
4.707,0.021665,12.970232
4.708,0.024886,12.885502
4.709,0.028267,13.083206
4.71,0.031809,13.139693
4.711,0.033902,13.252667
4.712,0.033902,13.252667
4.713,0.029877,13.365641
4.714,0.023275,13.506858
4.715,0.015225,13.591588
4.716,0.006691,13.450371
4.717,-0.001842,13.619832
4.718,-0.009088,13.28091
4.719,-0.013918,13.28091
4.72,-0.016172,13.139693
4.721,-0.017299,12.970232
4.722,-0.017621,13.11145
4.723,-0.01746,13.167937
4.724,-0.016816,13.252667
4.725,-0.010215,13.478615
4.726,-0.01102,13.506858
4.727,-0.008282,13.28091
4.728,-0.010859,13.167937
4.729,-0.016816,13.252667
4.73,-0.019231,13.083206
4.731,-0.018104,13.026719
4.732,-0.015689,13.054963
4.733,-0.013596,13.139693
4.734,-0.011181,13.28091
4.735,-0.008765,13.252667
4.736,-0.007799,13.252667
4.737,-0.008765,13.252667
4.738,-0.010859,13.309154
4.739,-0.013435,13.252667
4.74,-0.015206,13.139693
4.741,-0.017782,13.139693
4.742,-0.019714,12.687798
4.743,-0.019392,12.941989
4.744,-0.015689,13.28091
4.745,-0.010859,13.337397
4.746,-0.005384,13.309154
4.747,0.000251,13.19618
4.748,0.006691,13.252667
4.749,0.015225,13.139693
4.75,0.023758,12.998476
4.751,0.031326,12.941989
4.752,0.037444,12.772528
4.753,0.041309,12.998476
4.754,0.042436,12.970232
4.755,0.040986,12.885502
4.756,0.038571,12.998476
4.757,0.03519,13.11145
